#  0 [0.0, 0.0, 1.082e-05, 0.0] EPS0001.nlfc.dat.intrabandonly
#  1 [0.0, 0.0, 0.00108194, 0.0] EPS0002.nlfc.dat.intrabandonly
#  2 [0.0, 0.0, 0.00153007, 0.0] EPS0003.nlfc.dat.intrabandonly
#  3 [0.0, 0.0, 0.00216387, 0.0] EPS0004.nlfc.dat.intrabandonly
#  4 [0.0, 0.0, 0.00306015, 0.0] EPS0005.nlfc.dat.intrabandonly
#  5 [0.0, 0.0, 0.00432774, 0.0] EPS0006.nlfc.dat.intrabandonly
# recid omega eps1.... eps2... where num of eps is the number of EPSfiles
0 0.0 4862011494.55743 1258120.72534933 631452.655550498 316804.989778398 158881.175443362 79531.5884109002 0.0 0.0 0.0 0.0 0.0 0.0
1 1.015e-05 2065657326.88874 1243591.84870496 625167.753576725 314739.331596718 158272.714954642 79353.3876820866 4615325803.21464 53201.2226416948 22151.5924281525 8636.45290873846 3263.62330460726 1210.08123771516
2 3.076e-05 -1263305869.07983 1215585.22458129 611654.908054058 307820.402845629 155494.956160212 78471.9009728406 -0.0 94707.8736176821 38757.7997166911 17903.6453107873 7832.00136336646 3127.28291416024
3 5.2e-05 -260118648.112432 1198477.40686267 605579.394729223 304160.507072407 152904.123115408 77228.1736197322 -0.0 148877.88980626 55045.9891134215 20554.127151932 9243.72696399407 4319.91014857601
4 7.389e-05 -120011357.793995 1170899.25573789 599173.837177155 303201.815413679 152190.534146367 76313.1017625474 -0.0 197772.019105971 74778.4663951459 27714.015489325 10279.7575880828 4608.36296821492
5 9.644e-05 -68628358.8308341 1142818.12235868 589361.874430828 300797.403131522 152013.433000609 76067.5975536906 -0.0 231158.237770867 93356.0001463251 34951.67244972 12866.0952500766 4917.33100601533
6 0.0001197 -44008259.7052094 1123171.56109658 577436.111503202 297563.169809488 151250.853295982 76097.7013548206 -0.0 260553.266649285 108504.857965243 42047.0998245629 15665.6128029592 5668.48163951726
7 0.0001436 -30344431.1286488 1104464.16084998 567933.62457732 293548.534106119 150218.128514676 75966.4095351642 -0.0 296872.538482418 117919.499117946 48601.1121994971 18277.7644537181 6775.63287641932
8 0.0001683 -22004818.7453688 1086365.02370172 561963.376080513 289000.04444878 149000.712707248 75627.6071617307 -0.0 325587.614787046 129752.912511334 54173.326893057 20961.7500253951 7805.90384315546
9 0.0001937 -16561418.8302802 1070291.14988086 554519.101620522 284584.31786344 147490.18792006 75246.7917297446 -0.0 360343.659537839 144288.384679542 58274.4685444419 23508.7245098995 8792.25799149359
10 0.0002199 -12825840.205012 1051673.86320927 546824.965930462 282462.547852369 145824.060683961 74827.0640255182 -0.0 393085.461749068 154874.844040606 60668.6883490959 25739.4725536886 9809.72699924998
11 0.0002469 -10160536.7838853 1033385.23225525 541026.231008521 280528.182351129 144033.429934043 74309.9709097364 -0.0 422840.024981632 166957.054301071 67353.9738362738 27782.226863158 10844.9630115462
12 0.0002748 -8198741.52068895 1018999.99300251 534631.755322294 276945.240281042 142245.394162883 73702.0369664198 -0.0 448419.843240565 180457.898736653 72154.9165739199 29252.3130501261 11801.0868720563
13 0.0003034 -6717503.78639401 1016972.07386509 527326.538568574 273962.543602692 141285.239218451 73060.7651738502 -0.0 471541.404057168 193245.611614591 76296.4746026151 30024.4385963526 12675.5624350366
14 0.000333 -5575098.55567146 1019627.71434162 519989.689978797 271780.759766374 141024.194435708 72390.8252498275 -0.0 516178.280365574 205228.987378598 80539.7967577364 31924.8191745295 13506.2743489405
15 0.0003634 -4678033.64414694 1017824.34685882 513069.616689932 269593.42986926 139793.98878078 71638.2107490991 -0.0 565812.687261343 216309.711025461 85920.7439004092 34964.284425443 14269.8782734767
16 0.0003948 -3962678.3199432 995204.843119642 507870.252162349 266855.883171298 138139.4464124 70926.8933829962 -0.0 634558.699103213 225762.346164368 91183.4198396244 36337.6557336762 14733.8458025197
17 0.0004271 -3384553.81317829 971367.600357939 507759.812386405 263940.403183295 137089.070069558 70572.1678047192 -0.0 652245.558123107 234492.638229235 96248.4661996296 37950.6429244429 15017.3384229844
18 0.0004604 -2911842.47927973 996946.804102033 509444.345928254 260998.889178341 136275.906037815 70546.0609893914 -0.0 659859.255996497 252060.210795957 101087.739137161 39594.6488497921 15685.2400501155
19 0.0004948 -2521319.7789746 1092781.5232512 508434.053090782 258159.956326727 135479.618111665 70093.349169523 -0.0 686897.651670375 271702.888096421 105670.863267538 41735.1226524674 17047.594719764
20 0.0005301 -2195729.27222173 1595275.71407153 506777.301725876 255524.462012567 134448.545192903 69365.6029001559 -0.0 708923.526171475 293332.525749492 109960.733112946 43901.3974814987 17609.6000195442
21 0.0005666 -1922044.79083453 891621.936135842 493681.481331464 253747.085155199 133307.468376838 68886.1309152262 -0.0 2565085.3965774 324275.53083346 113484.481602013 46019.5936523778 18265.7942558581
22 0.0006041 -1690293.52704302 12473.6274118172 480915.698158642 254135.181650244 132117.885382045 68472.1370006752 -0.0 1097924.79171249 325804.34045915 117061.3785771 48081.1961264008 18898.6410707254
23 0.0006428 -1492742.67678972 254902.047449921 489573.705124814 255113.570197867 130916.492112882 68167.1778986361 -0.0 1150242.54642938 328165.324002829 124317.65575046 50076.9948688412 19582.385061301
24 0.0006827 -1323327.00986725 216906.250773521 515884.732681073 254826.988261306 129739.503981395 67857.4968788432 -0.0 1043539.80316579 338811.547013874 132377.525204978 51997.0343658237 20463.8254525871
25 0.0007238 -1177239.3239568 244339.16536282 580859.471281796 254287.78093931 128625.547404373 67450.1095308431 -0.0 992103.56186748 350133.317190403 140734.488490733 53830.5642201485 21370.1969601252
26 0.0007662 -1050633.02879692 264790.22121543 869215.217116316 253317.745807061 127614.255039867 66989.7630799883 -0.0 1012275.88533614 382425.677965092 150992.547768914 55542.872078331 22265.534139871
27 0.0008098 -940403.200132518 337137.931541606 439019.096391442 246261.621678947 127039.351972494 66501.0974060362 -0.0 983870.911056575 1447043.35148592 164569.270021152 56913.1830430466 23147.1109682874
28 0.0008548 -844023.378924481 720803.655467711 -60491.8030266472 240372.211322836 127384.754926387 65996.2514681823 -0.0 1052857.82565901 544898.452499981 162870.095926148 58472.4722764254 24011.969166678
29 0.0009011 -759422.520390594 559494.231817112 119216.088380455 244504.765475168 127905.144055927 65485.5948205776 -0.0 2376736.89247792 571526.58790076 163695.10705571 61568.7392351761 24856.9068193775
30 0.0009488 -684891.23004942 -1412547.54776092 109330.211698013 254706.807582665 127871.06392325 64980.1409412803 -0.0 3294900.18340931 537695.097270207 167807.076444953 64979.0892337157 25678.4568444207
31 0.000998 -619009.613397745 -2103724.92831835 111098.149961631 275331.931057255 127615.636520337 64492.8122254565 -0.0 251898.94908415 509337.468648042 172764.792150239 68508.9046626866 26472.8695830744
32 0.001049 -560591.251818012 -1216107.36555163 125470.545742651 348148.24621814 127532.83158812 64035.1178796746 -0.0 320717.778792286 494300.525853695 177039.734605966 72196.9085185875 27236.0933602326
33 0.001101 -508639.330076877 -969894.248360661 135828.413496179 407886.407424959 126950.923938166 63634.4227458201 -0.0 1300.81474452561 507687.73465569 350263.632325399 77331.4703057611 27935.3559874606
34 0.001155 -462312.00887264 -690872.421618131 177539.351901042 150815.663080432 123227.992612314 63462.7074085054 -0.0 -0.0 488676.578607892 660793.311103849 83200.9483947648 28494.8334576592
35 0.00121 -420894.891982485 -549759.649684351 353056.03526818 -25460.035919175 120629.422022026 63666.1406472708 -0.0 -0.0 527220.012735443 271515.323280134 81515.8132474211 29235.6013694735
36 0.001267 -383778.982335152 -454617.448245453 472944.063750671 61817.9070437012 122745.053048408 63896.2837557305 -0.0 -0.0 1011331.57430942 282217.099660509 81864.201311486 30595.313774466
37 0.001326 -350442.918153471 -384750.215700056 -570681.933218215 57443.6087297385 127129.292290033 63886.6925702189 -0.0 -0.0 2063189.72729825 276704.905456422 83425.9938745605 32083.1145903692
38 0.001387 -320438.570904744 -330881.016393346 -1220447.63104336 52983.1383946912 134983.829747612 63767.9353326738 -0.0 -0.0 277281.722863333 258909.210179013 85625.6095463169 33622.3407827289
39 0.00145 -293379.300740666 -287959.990853178 -687761.365882531 59199.0211721218 151992.009620378 63636.4606391441 -0.0 -0.0 117703.934106497 247358.693584166 87749.538024519 35215.4761293199
40 0.001514 -268930.327649183 -252933.823717927 -534259.770632003 66284.7860904664 229412.717040636 63608.5215833404 -0.0 -0.0 118522.592736686 250040.479734839 89032.470191508 36976.1497929006
41 0.00158 -246800.796192211 -223822.144650462 -440637.091277278 69817.4444685091 149310.155170413 63118.4032208616 -0.0 -0.0 -0.0 253087.487332633 350908.131963223 39566.6564612666
42 0.001649 -226737.203969621 -199272.882794011 -329828.695857642 95657.4271610096 -2601.17021090948 61059.7054221915 -0.0 -0.0 -0.0 243154.170824927 204483.81692656 42029.7074068165
43 0.001719 -208517.934823151 -178325.720311364 -269941.938346713 181603.1499049 15147.4265662314 59857.6025079513 -0.0 -0.0 -0.0 268312.730335423 135027.904806127 40805.2818568677
44 0.001792 -191948.690498621 -160276.73263858 -227709.150331102 273745.410334073 35714.9064749293 60827.243592285 -0.0 -0.0 -0.0 478332.656985842 140830.748279027 41038.7755717701
45 0.001867 -176858.657501287 -144596.439830899 -195711.29869903 -221316.365232173 30756.8410505354 62495.3145576331 -0.0 -0.0 -0.0 1084209.16584326 140136.11028751 41674.9673212817
46 0.001944 -163097.278190737 -130877.898280062 -170445.427810659 -629864.235714189 27292.0973040504 65245.9825063085 -0.0 -0.0 -0.0 266034.741861772 130045.221710757 42657.229627636
47 0.002024 -150531.520345047 -118802.572096284 -149926.836592962 -400956.334322537 29343.5485175498 70262.4584561753 -0.0 -0.0 -0.0 60883.6496291378 125203.770403292 43625.3831020673
48 0.002106 -139043.5593606 -108117.179914739 -132915.295131163 -297217.5769049 32857.5631694507 82582.8406111184 -0.0 -0.0 -0.0 84236.7534993131 123314.838432225 44443.2946056983
49 0.00219 -128528.805909329 -98617.5614018025 -118584.180113077 -253211.511323879 34488.5958257151 128600.753283025 -0.0 -0.0 -0.0 2585.23636045009 126942.912268739 52139.8941356496
50 0.002277 -118894.219218924 -90137.1718021544 -106356.106620311 -187407.889655171 38276.9816443527 59217.7894585896 -0.0 -0.0 -0.0 -0.0 123995.498238093 219157.828410343
51 0.002367 -110056.862618443 -82538.7090800135 -95812.9542845466 -152391.616910032 57922.4282714711 -22297.066827167 -0.0 -0.0 -0.0 -0.0 122292.321581892 75339.0770705826
52 0.002459 -101942.661031711 -75707.9108894126 -86643.0635631545 -128405.897531475 115698.722573747 11608.5421534661 -0.0 -0.0 -0.0 -0.0 140738.5937361 67309.8026420011
53 0.002554 -94485.3302896982 -69548.885459367 -78608.5495863995 -110406.438600171 125393.843671388 16856.1299883139 -0.0 -0.0 -0.0 -0.0 310359.00433762 71248.164649213
54 0.002652 -87625.4508461327 -63980.546726191 -71524.1894117702 -96262.5532145901 -156444.889347146 14233.0873340249 -0.0 -0.0 -0.0 -0.0 537208.42528991 69102.2302471575
55 0.002753 -81309.6659439542 -58933.8574602467 -65243.2991222539 -84804.6934876549 -327866.589489619 13379.7409793755 -0.0 -0.0 -0.0 -0.0 109031.38711933 64866.8435885802
56 0.002858 -75489.9834158788 -54349.6723708832 -59648.0045950568 -75315.5435820001 -200334.64139833 14295.9695286533 -0.0 -0.0 -0.0 -0.0 30540.326036056 62642.115867668
57 0.002965 -70123.1684632464 -50177.0327091186 -54642.36836698 -67323.0497157849 -148142.744989689 16100.4951740683 -0.0 -0.0 -0.0 -0.0 37057.5417243893 61305.5821103113
58 0.003075 -65170.2129128599 -46371.8047872171 -50147.427200128 -60500.528058199 -128521.595389204 17367.0614964921 -0.0 -0.0 -0.0 -0.0 11696.9205188507 63017.303269242
59 0.003189 -60595.870660812 -42895.583399606 -46097.5401239256 -54613.0552040533 -101454.312073216 18058.3749056954 -0.0 -0.0 -0.0 -0.0 -0.0 63048.6862016206
60 0.003307 -56368.2506376236 -39714.8013787302 -42437.6551305103 -49486.4649569148 -81087.1025040593 24196.720118641 -0.0 -0.0 -0.0 -0.0 -0.0 60740.3777738654
61 0.003428 -52458.4583567964 -36800.0010765047 -39121.2324254365 -44988.3759666432 -68351.9046565022 40196.6638661625 -0.0 -0.0 -0.0 -0.0 -0.0 65587.1110599563
62 0.003553 -48840.2808524281 -34125.2341555983 -36108.6450796033 -41016.0500043917 -58892.4241448558 81555.7659887627 -0.0 -0.0 -0.0 -0.0 -0.0 87053.8720135718
63 0.003681 -45489.9079564859 -31667.5638808849 -33365.9322364407 -37488.3318982571 -51473.9865640773 11193.8946524911 -0.0 -0.0 -0.0 -0.0 -0.0 257193.771282394
64 0.003813 -42385.6864367442 -29406.6499094286 -30863.8163495369 -34340.1325201124 -45461.6116483049 -145159.78358502 -0.0 -0.0 -0.0 -0.0 -0.0 186619.794518989
65 0.00395 -39507.901750311 -27324.3999496215 -28576.9206875272 -31518.5525657199 -40475.2441949854 -148692.63103806 -0.0 -0.0 -0.0 -0.0 -0.0 17077.9998620879
66 0.00409 -36838.5853357863 -25404.6759775738 -26483.1405167992 -28980.0969978229 -36267.592433748 -83691.6894462284 -0.0 -0.0 -0.0 -0.0 -0.0 14761.072816996
67 0.004235 -34361.3411877357 -23633.0452391065 -24563.1334733473 -26688.6333899475 -32668.5131367555 -71896.2603488065 -0.0 -0.0 -0.0 -0.0 -0.0 20976.4493150308
68 0.004385 -32061.1940038579 -21996.5682298845 -22799.9032869135 -24613.8692237678 -29556.036395375 -63414.8910448798 -0.0 -0.0 -0.0 -0.0 -0.0 241.751508965638
69 0.004538 -29924.4518829222 -20483.6173730516 -21178.457284906 -22730.19849639 -26839.8867486273 -47792.8969718533 -0.0 -0.0 -0.0 -0.0 -0.0 -0.0
70 0.004697 -27938.5847689436 -19083.7213110185 -19685.5226991514 -21015.8158491727 -24451.5007303726 -39574.9119584302 -0.0 -0.0 -0.0 -0.0 -0.0 -0.0
71 0.00486 -26092.1150698749 -17787.4306733897 -18309.3102050649 -19452.0275937909 -22337.6796705349 -33782.0841436834 -0.0 -0.0 -0.0 -0.0 -0.0 -0.0
72 0.005029 -24374.5201876524 -16586.2019340047 -17039.3156760492 -18022.7097532485 -20456.3943110951 -29355.0097799516 -0.0 -0.0 -0.0 -0.0 -0.0 -0.0
73 0.005202 -22776.1443529566 -15472.2965704226 -15866.153067758 -16713.8773141023 -18773.9215416564 -25825.1761880629 -0.0 -0.0 -0.0 -0.0 -0.0 -0.0
74 0.005381 -21288.1202379347 -14438.6932203873 -14781.4128222635 -15513.3386123841 -17262.836794347 -22930.667756615 -0.0 -0.0 -0.0 -0.0 -0.0 -0.0
75 0.005565 -19902.2980644151 -13479.0109233734 -13777.5413173755 -14410.4156049001 -15900.5733938221 -20508.2506256504 -0.0 -0.0 -0.0 -0.0 -0.0 -0.0
76 0.005755 -18611.1815719217 -12587.4418461443 -12847.7377701087 -13395.7156428966 -14668.3677057143 -18448.9827194651 -0.0 -0.0 -0.0 -0.0 -0.0 -0.0
77 0.00595 -17407.8706343474 -11758.692157654 -11985.8656900861 -12460.9438793061 -13550.4729585405 -16676.5393869773 -0.0 -0.0 -0.0 -0.0 -0.0 -0.0
78 0.006152 -16286.0092743695 -10987.9299249638 -11186.3765251132 -11598.748010106 -12533.5640195237 -15135.440046144 -0.0 -0.0 -0.0 -0.0 -0.0 -0.0
79 0.00636 -15239.7384837018 -10270.7390788438 -10444.2435695211 -10802.5889511103 -11606.2803605913 -13784.1590939941 -0.0 -0.0 -0.0 -0.0 -0.0 -0.0
80 0.006574 -14263.6540132691 -9603.07864414599 -9754.90455048279 -10066.6324721727 -10758.8706596781 -12590.8636177497 -0.0 -0.0 -0.0 -0.0 -0.0 -0.0
81 0.006794 -13352.7679096177 -8981.24654855941 -9114.21158308412 -9385.65788445576 -9982.91324834688 -11530.658053152 -0.0 -0.0 -0.0 -0.0 -0.0 -0.0
82 0.007021 -12502.4730631107 -8401.84742418118 -8518.38740804916 -8754.98069308574 -9271.09391182479 -10583.7382611752 -0.0 -0.0 -0.0 -0.0 -0.0 -0.0
83 0.007255 -11708.5119226787 -7861.76390072187 -7963.98700576868 -8170.38675697902 -8617.02758138459 -9734.1174615293 -0.0 -0.0 -0.0 -0.0 -0.0 -0.0
84 0.007497 -10966.9479859346 -7358.13096011484 -7447.86382837202 -7628.07598414488 -8015.11398891414 -8968.72429057228 -0.0 -0.0 -0.0 -0.0 -0.0 -0.0
85 0.007745 -10274.1387203588 -6888.31298196501 -6967.14001200744 -7124.61397154775 -7460.41986722084 -8276.75016426302 -0.0 -0.0 -0.0 -0.0 -0.0 -0.0
86 0.008001 -9626.71210219492 -6449.88315876774 -6519.18003089852 -6656.89029744741 -6948.58209307937 -7649.16791249263 -0.0 -0.0 -0.0 -0.0 -0.0 -0.0
87 0.008265 -9021.54532470199 -6040.60500404261 -6101.56733721596 -6222.08241113945 -6475.72749589141 -7078.37068822968 -0.0 -0.0 -0.0 -0.0 -0.0 -0.0
88 0.008537 -8455.74448543392 -5658.41571231588 -5712.08359838198 -5817.62425401462 -6038.40603486229 -6557.89699303504 -0.0 -0.0 -0.0 -0.0 -0.0 -0.0
89 0.008818 -7926.6262142032 -5301.41116061453 -5348.69020140244 -5441.17889672222 -5633.53477997852 -6082.21843574578 -0.0 -0.0 -0.0 -0.0 -0.0 -0.0
90 0.009107 -7431.7019006667 -4967.8323694957 -5009.51174036547 -5090.61459956462 -5258.35068519675 -5646.573904265 -0.0 -0.0 -0.0 -0.0 -0.0 -0.0
91 0.009404 -6968.66164830545 -4656.05326164171 -4692.82124393687 -4763.98380216452 -4910.37056343504 -5246.83856003433 -0.0 -0.0 -0.0 -0.0 -0.0 -0.0
92 0.009711 -6535.36076930922 -4364.56957983984 -4397.02693329461 -4459.50462877613 -4587.35699672266 -4879.41929340998 -0.0 -0.0 -0.0 -0.0 -0.0 -0.0
93 0.01003 -6129.80830773192 -4091.98883825751 -4120.66032909407 -4175.54456197634 -4287.28916595274 -4541.17052065224 -0.0 -0.0 -0.0 -0.0 -0.0 -0.0
94 0.01035 -5750.15235424227 -3837.02120120704 -3862.36555097207 -3910.60599139404 -4008.33778033406 -4229.32578556645 -0.0 -0.0 -0.0 -0.0 -0.0 -0.0
95 0.01069 -5394.67281820149 -3598.47119083149 -3620.88967291139 -3663.31338926338 -3748.84344089729 -3941.44176149047 -0.0 -0.0 -0.0 -0.0 -0.0 -0.0
96 0.01103 -5061.76948466958 -3375.2301409138 -3395.07401586902 -3432.40190170066 -3507.29789438447 -3675.35207101479 -0.0 -0.0 -0.0 -0.0 -0.0 -0.0
97 0.01139 -4749.95361107913 -3166.26932056469 -3183.84627429822 -3216.70717576163 -3282.3277310253 -3429.12894402016 -0.0 -0.0 -0.0 -0.0 -0.0 -0.0
98 0.01176 -4457.84000294358 -2970.63366168937 -2986.21338537371 -3015.15626762647 -3072.68015746845 -3201.05118268755 -0.0 -0.0 -0.0 -0.0 -0.0 -0.0
99 0.01214 -4184.13836603918 -2787.4360311965 -2801.25506165869 -2826.75950060934 -2877.21053961777 -2989.57723824461 -0.0 -0.0 -0.0 -0.0 -0.0 -0.0
100 0.01253 -3927.6474858195 -2615.85199402342 -2628.11791726958 -2650.60315772775 -2694.87145993068 -2793.32245886006 -0.0 -0.0 -0.0 -0.0 -0.0 -0.0
101 0.01293 -3687.24817491069 -2455.1150219815 -2466.01012561281 -2485.84291161532 -2524.70307673407 -2611.03976303707 -0.0 -0.0 -0.0 -0.0 -0.0 -0.0
102 0.01334 -3461.89710992745 -2304.51210428586 -2314.19655487293 -2331.69790532219 -2365.82460549277 -2441.60314272146 -0.0 -0.0 -0.0 -0.0 -0.0 -0.0
103 0.01377 -3250.6221255354 -2163.37972345323 -2171.99433208201 -2187.44541090197 -2217.42677153354 -2283.99351740346 -0.0 -0.0 -0.0 -0.0 -0.0 -0.0
104 0.01421 -3052.51652418502 -2031.10016303867 -2038.7687944779 -2052.41600060165 -2078.76510537625 -2137.28655162178 -0.0 -0.0 -0.0 -0.0 -0.0 -0.0
105 0.01466 -2866.73396649336 -1907.09811572657 -1913.92978856627 -1925.9891743669 -1949.15397231905 -2000.64212050545 -0.0 -0.0 -0.0 -0.0 -0.0 -0.0
106 0.01513 -2692.48528339022 -1790.83756574671 -1796.92828509367 -1807.58939466954 -1827.96124275491 -1873.29516516566 -0.0 -0.0 -0.0 -0.0 -0.0 -0.0
107 0.01561 -2529.03406368487 -1681.8189210323 -1687.2532776961 -1696.68248502954 -1714.60352403265 -1754.54772551522 -0.0 -0.0 -0.0 -0.0 -0.0 -0.0
108 0.0161 -2375.69219408811 -1579.57637288221 -1584.42894095926 -1592.7723541939 -1608.54188524832 -1643.76197467558 -0.0 -0.0 -0.0 -0.0 -0.0 -0.0
109 0.01662 -2231.81722794846 -1483.6754627181 -1488.01202084915 -1495.39801260916 -1509.27801611721 -1540.35410905463 -0.0 -0.0 -0.0 -0.0 -0.0 -0.0
110 0.01714 -2096.80948030104 -1393.71083868098 -1397.5894389763 -1404.13085137232 -1416.35076906275 -1443.78897206556 -0.0 -0.0 -0.0 -0.0 -0.0 -0.0
111 0.01768 -1970.10847270513 -1309.30418708217 -1312.77608943592 -1318.57215748082 -1329.33304031464 -1353.57530924369 -0.0 -0.0 -0.0 -0.0 -0.0 -0.0
