#  0 [0.0, 0.0, 1.082e-05, 0.0] EPS0001.nlfc.dat.intrabandonly
#  1 [0.0, 0.0, 0.00108194, 0.0] EPS0002.nlfc.dat.intrabandonly
#  2 [0.0, 0.0, 0.00153007, 0.0] EPS0003.nlfc.dat.intrabandonly
#  3 [0.0, 0.0, 0.00216387, 0.0] EPS0004.nlfc.dat.intrabandonly
#  4 [0.0, 0.0, 0.00306015, 0.0] EPS0005.nlfc.dat.intrabandonly
#  5 [0.0, 0.0, 0.00432774, 0.0] EPS0006.nlfc.dat.intrabandonly
# recid omega eps1.... eps2... where num of eps is the number of EPSfiles
0 0.0 4862205261.49185 1258118.96561772 631451.998455755 316804.769213996 158881.111912449 79531.5699452833 0.0 0.0 0.0 0.0 0.0 0.0
1 1.015e-05 2065739650.03588 1243589.85188641 625166.990310122 314739.099161456 158272.651053415 79353.3695272196 4615509738.92385 53201.4301120257 22151.6659957057 8636.46980564756 3263.62748425022 1210.08179164365
2 3.076e-05 -1263356215.91796 1215583.05012167 611654.253331886 307820.096161932 155494.872597301 78471.8815216313 -0.0 94707.2618913238 38757.3971510409 17903.6569759325 7832.02072924956 3127.2873938867
3 5.2e-05 -260129014.68464 1198475.41258551 605578.804247481 304160.273320442 152904.007632757 77228.1448252605 -0.0 148877.041282973 55045.9810246611 20553.9231763833 9243.71834862796 4319.91989611326
4 7.389e-05 -120016140.63606 1170897.35183662 599173.104208101 303201.629439706 152190.468985208 76313.0547469149 -0.0 197770.651374215 74778.1159838287 27714.0105403356 10279.6604238475 4608.36377562584
5 9.644e-05 -68631093.8936607 1142817.25519972 589361.277908334 300797.1410098 152013.388617158 76067.5714594391 -0.0 231155.901647053 93355.4974205213 34951.5616407393 12866.1092781734 4917.28103459679
6 0.0001197 -44010013.5771978 1123171.06550933 577435.602559004 297562.949189048 151250.767355673 76097.7002451905 -0.0 260552.601760823 108504.293533562 42046.9169571882 15665.5815361945 5668.4733897746
7 0.0001436 -30345640.4527317 1104463.22129211 567933.576498385 293548.361733523 150218.049702645 75966.3916839948 -0.0 296871.220834847 117918.56352263 48600.9216979309 18277.7131879557 6775.63427729827
8 0.0001683 -22005695.7088376 1086364.30939413 561963.343329756 288999.88882051 149000.65075692 75627.5811266559 -0.0 325586.218879913 129752.983179864 54173.1224006809 20961.678473134 7805.89072377877
9 0.0001937 -16562078.8565995 1070290.6277082 554518.748087248 284584.240731287 147490.144562134 75246.7669709323 -0.0 360342.141146854 144287.945309519 58274.1723985797 23508.6548969195 8792.2400563178
10 0.0002199 -12826351.3564016 1051673.56037906 546824.714206311 282462.668993601 145824.027673592 74827.0438518494 -0.0 393083.958693759 154874.461565028 60668.4203079381 25739.4027568518 9809.6986873865
11 0.0002469 -10160941.7142852 1033385.08406289 541026.002807803 280528.203583276 144033.402390022 74309.9601779531 -0.0 422838.5927199 166956.56558088 67354.1267964248 27782.1553789476 10844.9327906591
12 0.0002748 -8199068.26718192 1019000.01214481 534631.606707531 276945.090002679 142245.395714094 73702.0317166008 -0.0 448418.469214599 180457.404349041 72154.8014241657 29252.2113600672 11801.0604794402
13 0.0003034 -6717771.5007569 1016972.0651719 527326.444745384 273962.441191905 141285.344924889 73060.7626928432 -0.0 471540.407481075 193245.121845314 76296.3694024914 30024.3406076533 12675.5360493428
14 0.000333 -5575320.741479 1019627.38799543 519989.640974409 271780.658579104 141024.186849457 72390.8257254816 -0.0 516177.380342907 205228.513474675 80539.658280456 31925.0142363913 13506.2487023977
15 0.0003634 -4678220.07900693 1017823.74163801 513069.593074769 269593.350448304 139793.894528971 71638.2131227087 -0.0 565811.634934885 216309.265263326 85920.586162362 34964.1701403161 14269.8516848012
16 0.0003948 -3962836.24557232 995204.058038778 507870.27260704 266855.824638852 138139.443108667 70926.9061609459 -0.0 634557.587722768 225761.898833337 91183.2616937204 36337.6334420919 14733.8100200457
17 0.0004271 -3384688.6986699 971365.768965195 507759.836248811 263940.358461826 137089.044450287 70572.2030634821 -0.0 652245.035093336 234492.311199274 96248.3098273472 37950.6204601513 15017.3081351286
18 0.0004604 -2911958.52569081 996943.638799988 509444.264794302 260998.854966339 136275.872439004 70546.1134186217 -0.0 659857.413039222 252059.942771229 101087.58692294 39594.6182997294 15685.2421691452
19 0.0004948 -2521420.2617889 1092776.11676781 508433.867635114 258159.928334039 135479.587917286 70093.3556200408 -0.0 686895.730105511 271702.563546318 105670.717812524 41735.0767724858 17047.6636176553
20 0.0005301 -2195816.77919785 1595255.4604493 506777.045327069 255524.433105297 134448.523535871 69365.5774736318 -0.0 708921.285989953 293332.15042008 109960.594481388 43901.3514271664 17609.5927487857
21 0.0005666 -1922121.390596 891630.411957772 493681.223908132 253747.066924205 133307.450881537 68886.1243977064 -0.0 2565023.30761848 324275.077181574 113484.333843951 46019.5478522169 18265.7950227085
22 0.0006041 -1690360.89076464 12512.8979533932 480915.130653457 254135.167027633 132117.870865312 68472.125370296 -0.0 1097924.62497067 325804.19620364 117061.268801372 48081.1510480902 18898.6440833348
23 0.0006428 -1492802.16746894 254927.745630153 489572.762956759 255113.516367068 130916.479675879 68167.1637178233 -0.0 1150248.88535725 328164.680824415 124317.575241743 50076.9510230115 19582.3774699795
24 0.0006827 -1323379.74878242 216924.723494186 515883.434615735 254826.888678377 129739.492557674 67857.4870823304 -0.0 1043556.67304087 338810.90107786 132377.424456221 51996.9923088532 20463.8137214391
25 0.0007238 -1177286.24080365 244346.290071051 580856.486488264 254287.648520745 128625.534720487 67450.1031003515 -0.0 992123.147778022 350132.639106261 140734.366566043 53830.5245574414 21370.1852848533
26 0.0007662 -1050674.89997209 264791.489564483 869209.342970291 253317.584143307 127614.240185613 66989.758267255 -0.0 1012288.75046105 382421.623046765 150992.395958309 55542.8312028705 22265.5226127031
27 0.0008098 -940440.678291346 337138.643664649 439021.260761606 246261.462245917 127039.339731532 66501.0936482361 -0.0 983883.344926765 1447026.21479714 164569.084311601 56913.1386536811 23147.0996899157
28 0.0008548 -844057.016034694 720803.897281499 -60481.4495326689 240371.933011023 127384.745950394 65996.2484067901 -0.0 1052871.84513971 544893.869184956 162870.03399865 58472.4356897321 24011.9582467016
29 0.0009011 -759452.785882081 559472.130676315 119229.196677417 244504.334218775 127905.123253354 65485.5921441425 -0.0 2376766.63541784 571521.77898769 163694.866800217 61568.7182832967 24856.8963770247
30 0.0009488 -684918.525227146 -1412566.18386443 109341.207077549 254706.225955705 127871.025003127 64980.1383034853 -0.0 3294871.90865813 537705.538489827 167806.846130593 64979.0610669511 25678.447009286
31 0.000998 -619034.282979275 -2103719.0468204 111101.048189644 275330.862768323 127615.585699349 64492.8091338538 -0.0 251895.70139084 509345.060957618 172764.553909221 68508.8684211206 26472.8604958077
32 0.001049 -560613.593238272 -1216105.74265483 125471.583806064 348144.585548316 127532.768481857 64035.1129954743 -0.0 320719.998036568 494306.048383495 177039.470172391 72196.8627436614 27236.0851733103
33 0.001101 -508659.601044481 -969895.67419708 135828.780393638 407887.643072581 126950.854404585 63634.4165215315 -0.0 1302.72408037937 507692.612177767 350253.275493928 77331.4061578542 27935.345464812
34 0.001155 -462330.433546172 -690874.237547367 177539.345026513 150820.476566461 123227.928838467 63462.7017854375 -0.0 -0.0 488681.010493723 660794.707283915 83200.8760954803 28494.8216441845
35 0.00121 -420911.666049514 -549760.794456507 353055.250555889 -25458.1488600709 120629.322963763 63666.1378834777 -0.0 -0.0 527225.340023511 271513.674074015 81515.7809874407 29235.5890436753
36 0.001267 -383794.277212747 -454618.36676351 472940.696886416 61822.2723262373 122744.908854554 63896.277946332 -0.0 -0.0 1011337.81429405 282215.326568578 81864.1162242082 30595.311086433
37 0.001326 -350456.88448074 -384750.98527726 -570691.969270248 57447.5700786635 127129.109090267 63886.6787318671 -0.0 -0.0 2063195.24624326 276708.259844997 83425.914900563 32083.1089498883
38 0.001387 -320451.341461416 -330881.674216346 -1220452.46854803 52984.722447303 134983.537763543 63767.9168398994 -0.0 -0.0 277269.002332984 258911.643169464 85625.5295156561 33622.3318390399
39 0.00145 -293390.992897618 -287960.560278397 -687756.961111771 59199.7725466274 151991.448891974 63636.4370410468 -0.0 -0.0 117702.688078286 247361.230195135 87749.4560892435 35215.4636728465
40 0.001514 -268941.045435224 -252934.321202042 -534258.888303088 66285.0798698 229410.666665358 63608.4952260585 -0.0 -0.0 118525.5000184 250042.184073563 89032.3663056102 36976.1286735343
41 0.00158 -246810.632044619 -223822.582488036 -440638.205481641 69817.687837554 149311.509872529 63118.3779614066 -0.0 -0.0 -0.0 253089.302754191 350901.920348011 39566.6300443387
42 0.001649 -226746.240222775 -199273.27049587 -329829.174239369 95657.6087174002 -2598.3163840657 61059.6804269419 -0.0 -0.0 -0.0 243155.828152053 204486.365724517 42029.6798165121
43 0.001719 -208526.244979312 -178326.065410531 -269942.305500594 181603.37332565 15147.6503869382 59857.5715140427 -0.0 -0.0 -0.0 268314.920599876 135027.265299951 40805.2563142188
44 0.001792 -191956.340316631 -160277.041207362 -227709.457190853 273744.700500064 35716.4567594064 60827.2054330065 -0.0 -0.0 -0.0 478336.291897487 140830.1252719 41038.7427576225
45 0.001867 -176865.705932516 -144596.716833102 -195711.562662123 -221323.137000197 30758.2823778677 62495.2657606008 -0.0 -0.0 -0.0 1084214.87480745 140137.304591122 41674.9374209141
46 0.001944 -163103.778186348 -130878.147820869 -170445.658117002 -629868.124978146 27292.7582389066 65245.9072359826 -0.0 -0.0 -0.0 266024.712654039 130046.05487332 42657.2008055966
47 0.002024 -150537.519554436 -118802.797604839 -149927.039351837 -400953.468619518 29343.9277385781 70262.326852462 -0.0 -0.0 -0.0 60882.9373817655 125204.766226275 43625.3539632978
48 0.002106 -139049.100737466 -108117.384280595 -132915.474832582 -297216.111710545 32857.7078402995 82582.5108996897 -0.0 -0.0 -0.0 84236.5298009982 123315.540167701 44443.2608138332
49 0.00219 -128533.92823915 -98617.7470787676 -118584.340239097 -253211.146479836 34488.7278310366 128600.237130411 -0.0 -0.0 -0.0 2586.83141270867 126943.57918046 52139.3808625783
50 0.002277 -118898.957579206 -90137.3408885219 -106356.249954732 -187408.445722747 38277.0843337106 59218.4027267487 -0.0 -0.0 -0.0 -0.0 123996.165566347 219156.156610561
51 0.002367 -110061.248781387 -82538.8633813652 -95813.0830968151 -152391.806801629 57922.5447701791 -22296.2043166015 -0.0 -0.0 -0.0 -0.0 122293.033089227 75339.7623528804
52 0.002459 -101946.723817392 -75708.0519683356 -86643.1797294924 -128406.029981267 115699.106807977 11608.7276383008 -0.0 -0.0 -0.0 -0.0 140739.493449831 67309.5266175994
53 0.002554 -94489.0958765523 -69549.0146752151 -78608.6546750038 -110406.545629218 125392.848705183 16856.7763197047 -0.0 -0.0 -0.0 -0.0 310361.905244318 71247.9829602445
54 0.002652 -87628.9430445326 -63980.6652671765 -71524.2847453179 -96262.6445238506 -156448.658978986 14233.6221490783 -0.0 -0.0 -0.0 -0.0 537209.527922077 69102.7486569799
55 0.002753 -81312.9064378321 -58933.9663695564 -65243.3858250832 -84804.7733292787 -327868.055870353 13379.96390275 -0.0 -0.0 -0.0 -0.0 109026.662756134 64867.1501191079
56 0.002858 -75492.9919765231 -54349.7725680957 -59648.0836295183 -75315.6143294706 -200333.813588775 14296.1005321506 -0.0 -0.0 -0.0 -0.0 30539.9677808208 62642.4889850934
57 0.002965 -70125.9631389007 -50177.1250078917 -54642.4405618846 -67323.1129256379 -148140.913646242 16100.5800534543 -0.0 -0.0 -0.0 -0.0 37055.0075737146 61305.7933463681
58 0.003075 -65172.8101971636 -46371.8899099902 -50147.4932732931 -60500.5848612005 -128520.279913182 17367.1493139532 -0.0 -0.0 -0.0 -0.0 11700.0923730847 63017.6050226918
59 0.003189 -60598.2856427341 -42895.6619898964 -46097.6007002344 -54613.1064752643 -101455.201685323 18058.408216766 -0.0 -0.0 -0.0 -0.0 -0.0 63048.9497905623
60 0.003307 -56370.4971351699 -39714.8740114746 -42437.7107565123 -49486.5114007138 -81087.3025720803 24196.7779918136 -0.0 -0.0 -0.0 -0.0 -0.0 60740.6271477491
61 0.003428 -52460.5490364344 -36800.0682668036 -39121.2835812486 -44988.4181646256 -68352.0099123711 40196.7272894557 -0.0 -0.0 -0.0 -0.0 -0.0 65587.4766787285
62 0.003553 -48842.2273359524 -34125.2963661467 -36108.6921886835 -41016.0884451548 -58892.4944635778 81556.0604769439 -0.0 -0.0 -0.0 -0.0 -0.0 87054.2960243463
63 0.003681 -45491.7209167774 -31667.621528316 -33365.9756736699 -37488.3669974206 -51474.0394842771 11192.3335484001 -0.0 -0.0 -0.0 -0.0 -0.0 257196.14434937
64 0.003813 -42387.3756837357 -29406.7033697541 -30863.8564479434 -34340.164634591 -45461.6542126351 -145161.187129032 -0.0 -0.0 -0.0 -0.0 -0.0 186617.074172362
65 0.00395 -39509.4763082449 -27324.4495629158 -28576.9577439153 -31518.58200435 -40475.2798224312 -148691.951566394 -0.0 -0.0 -0.0 -0.0 -0.0 17077.5673028309
66 0.00409 -36840.0535127995 -25404.7220520241 -26483.1747964868 -28980.1240295307 -36267.6230220715 -83691.2632488414 -0.0 -0.0 -0.0 -0.0 -0.0 14760.9127252384
67 0.004235 -34362.7106385323 -23633.0880545265 -24563.1652141727 -26688.6582501781 -32668.5398513437 -71895.9968130448 -0.0 -0.0 -0.0 -0.0 -0.0 20976.6644625974
68 0.004385 -32062.4717863249 -21996.608040775 -22799.9327026426 -24613.8921196358 -29556.0600100874 -63414.9062558588 -0.0 -0.0 -0.0 -0.0 -0.0 241.953782719062
69 0.004538 -29925.6445092825 -20483.6544112738 -21178.4845681411 -22730.2196108643 -26839.9078096685 -47792.9747233291 -0.0 -0.0 -0.0 -0.0 -0.0 -0.0
70 0.004697 -27939.6982520554 -19083.7557881378 -19685.5480238267 -21015.8353445141 -24451.5196421074 -39574.9370700374 -0.0 -0.0 -0.0 -0.0 -0.0 -0.0
71 0.00486 -26093.154965178 -17787.4627827363 -18309.333728595 -19452.0456144021 -22337.6967437322 -33782.1005487974 -0.0 -0.0 -0.0 -0.0 -0.0 -0.0
72 0.005029 -24375.4916312266 -16586.2318524898 -17039.337541187 -18022.7264280559 -20456.4097917322 -29355.0227081235 -0.0 -0.0 -0.0 -0.0 -0.0 -0.0
73 0.005202 -22777.0520960669 -15472.3244601447 -15866.1734042069 -16713.8927585591 -18773.9356290324 -25825.1871988535 -0.0 -0.0 -0.0 -0.0 -0.0 -0.0
74 0.005381 -21288.9686784561 -14438.7192300562 -14781.4317480813 -15513.3529301657 -17262.8496529948 -22930.6774711561 -0.0 -0.0 -0.0 -0.0 -0.0 -0.0
75 0.005565 -19903.0912754257 -13479.035189575 -13777.5589402004 -14410.4288893467 -15900.5851616524 -20508.25934771 -0.0 -0.0 -0.0 -0.0 -0.0 -0.0
76 0.005755 -18611.9233277509 -12587.4644944677 -12847.7541882351 -13395.7279782464 -14668.3784997751 -18448.9906251329 -0.0 -0.0 -0.0 -0.0 -0.0 -0.0
77 0.00595 -17408.5644343312 -11758.7133036974 -11985.880993409 -12460.9553417551 -13550.4828792096 -16676.546593414 -0.0 -0.0 -0.0 -0.0 -0.0 -0.0
78 0.006152 -16286.6583645375 -10987.9496752346 -11186.3907959623 -11598.7586687215 -12533.5731536393 -15135.4466397184 -0.0 -0.0 -0.0 -0.0 -0.0 -0.0
79 0.00636 -15240.3458765844 -10270.7575315658 -10444.2568833967 -10802.5988686226 -11606.2887838413 -13784.165142998 -0.0 -0.0 -0.0 -0.0 -0.0 -0.0
80 0.006574 -14264.2225060182 -9603.09588998403 -9754.91697670972 -10066.6417056624 -10758.8784384576 -12590.8691786874 -0.0 -0.0 -0.0 -0.0 -0.0 -0.0
81 0.006794 -13353.3001005996 -8981.26267127161 -9114.22318539161 -9385.66648595414 -9982.92044122679 -11530.6631741372 -0.0 -0.0 -0.0 -0.0 -0.0 -0.0
82 0.007021 -12502.9713670841 -8401.86250120726 -8518.39824508815 -8754.98871009938 -9271.10057072994 -10583.7429839341 -0.0 -0.0 -0.0 -0.0 -0.0 -0.0
83 0.007255 -11708.978584724 -7861.77800371421 -7963.99713157344 -8170.39423295085 -8617.03375254966 -9734.12182268489 -0.0 -0.0 -0.0 -0.0 -0.0 -0.0
84 0.007497 -10967.3850942514 -7358.14415541899 -7447.87329277327 -7628.08295885991 -8015.11971366883 -8968.72832253285 -0.0 -0.0 -0.0 -0.0 -0.0 -0.0
85 0.007745 -10274.5482179781 -6888.32533105501 -6967.14886100278 -7124.62048149137 -7460.4251826406 -8276.75389587629 -0.0 -0.0 -0.0 -0.0 -0.0 -0.0
86 0.008001 -9627.09579776268 -6449.89471864112 -6519.18830698532 -6656.89637612259 -6948.58703252954 -7649.17136955183 -0.0 -0.0 -0.0 -0.0 -0.0 -0.0
87 0.008265 -9021.90490240987 -6040.61582757932 -6101.57507969098 -6222.08808934832 -6475.73208948572 -7078.37389387947 -0.0 -0.0 -0.0 -0.0 -0.0 -0.0
88 0.008537 -8456.08151414221 -5658.42584860491 -5712.09084361163 -5817.62956010911 -6038.41030985183 -6557.89996810565 -0.0 -0.0 -0.0 -0.0 -0.0 -0.0
89 0.008818 -7926.94215583171 -5301.42065525148 -5348.69698306695 -5441.1838568275 -5633.53876108389 -6082.2211990332 -0.0 -0.0 -0.0 -0.0 -0.0 -0.0
90 0.009107 -7431.99811795519 -4967.84126485423 -5009.51808967985 -5090.61923777898 -5258.35439489327 -5646.57647276906 -0.0 -0.0 -0.0 -0.0 -0.0 -0.0
91 0.009404 -6968.93941193789 -4656.06159712153 -4692.82718985123 -4763.98814073834 -4910.37402219889 -5246.84094916291 -0.0 -0.0 -0.0 -0.0 -0.0 -0.0
92 0.009711 -6535.62126449521 -4364.57739209343 -4397.03250267598 -4459.50868827266 -4587.36022324442 -4879.42151715545 -0.0 -0.0 -0.0 -0.0 -0.0 -0.0
93 0.01003 -6130.05264033657 -4091.99616139766 -4120.66554689175 -4175.54836141626 -4287.29217732336 -4541.17259174478 -0.0 -0.0 -0.0 -0.0 -0.0 -0.0
94 0.01035 -5750.38155632523 -3837.02806699709 -3862.37044036812 -3910.60954838578 -4008.34059220758 -4229.32771560787 -0.0 -0.0 -0.0 -0.0 -0.0 -0.0
95 0.01069 -5394.8878532715 -3598.47762885983 -3620.89425545792 -3663.31672012079 -3748.84606763366 -3941.44356107134 -0.0 -0.0 -0.0 -0.0 -0.0 -0.0
96 0.01103 -5061.97125246149 -3375.23617875405 -3395.07831161342 -3432.40502154945 -3507.30034917541 -3675.35374981751 -0.0 -0.0 -0.0 -0.0 -0.0 -0.0
97 0.01139 -4750.14295199654 -3166.274983923 -3183.85030189768 -3216.71009863581 -3282.3300260056 -3429.13051090972 -0.0 -0.0 -0.0 -0.0 -0.0 -0.0
98 0.01176 -4458.01770218585 -2970.63897453986 -2986.21716220005 -3015.15900655582 -3072.6823038146 -3201.0526457918 -0.0 -0.0 -0.0 -0.0 -0.0 -0.0
99 0.01214 -4184.30515738318 -2787.441015906 -2801.25860389429 -2826.76206769899 -2877.21254763575 -2989.57860502535 -0.0 -0.0 -0.0 -0.0 -0.0 -0.0
100 0.01253 -3927.80405516979 -2615.8566714664 -2628.12123999547 -2650.60556423054 -2694.87333913421 -2793.32373617616 -0.0 -0.0 -0.0 -0.0 -0.0 -0.0
101 0.01293 -3687.39516356834 -2455.11941164605 -2466.01324288947 -2485.84516799779 -2524.70483591458 -2611.04095720069 -0.0 -0.0 -0.0 -0.0 -0.0 -0.0
102 0.01334 -3462.03511761382 -2304.51622437151 -2314.1994798146 -2331.70002132484 -2365.82625278212 -2441.60425954817 -0.0 -0.0 -0.0 -0.0 -0.0 -0.0
103 0.01377 -3250.75171322793 -2163.38359096129 -2171.99707692501 -2187.44739559424 -2217.42831446038 -2283.99456225708 -0.0 -0.0 -0.0 -0.0 -0.0 -0.0
104 0.01421 -3052.63821672687 -2031.10379385574 -2038.77137064353 -2052.41786243235 -2078.76655091675 -2137.28752945446 -0.0 -0.0 -0.0 -0.0 -0.0 -0.0
105 0.01466 -2866.84825499708 -1907.10152470173 -1913.93220671882 -1925.9909212103 -1949.15532694264 -2000.64303589371 -0.0 -0.0 -0.0 -0.0 -0.0 -0.0
106 0.01513 -2692.59262751863 -1790.84076676302 -1796.93055519386 -1807.59103386771 -1827.96251246571 -1873.29602234276 -0.0 -0.0 -0.0 -0.0 -0.0 -0.0
107 0.01561 -2529.13489375187 -1681.82192707293 -1687.25540905046 -1696.6840234312 -1714.6047144069 -1754.54852840033 -0.0 -0.0 -0.0 -0.0 -0.0 -0.0
108 0.0161 -2375.78691298392 -1579.57919609178 -1584.43094226572 -1592.77379819014 -1608.5430014684 -1643.76272690007 -0.0 -0.0 -0.0 -0.0 -0.0 -0.0
109 0.01662 -2231.90621296018 -1483.67811445952 -1488.01390023918 -1495.39936816628 -1509.27906300253 -1540.35481398585 -0.0 -0.0 -0.0 -0.0 -0.0 -0.0
110 0.01714 -2096.89308481591 -1393.71332958819 -1397.59120405391 -1404.13212406208 -1416.35175109789 -1443.78963282838 -0.0 -0.0 -0.0 -0.0 -0.0 -0.0
111 0.01768 -1970.18702777356 -1309.30652710906 -1312.77774731374 -1318.57335250835 -1329.333961675 -1353.57592874 -0.0 -0.0 -0.0 -0.0 -0.0 -0.0
