#  0 [0.0, 0.0, 0.00108194, 0.0] EPS0002.nlfc.dat.interbandonly
#  1 [0.0, 0.0, 0.00153007, 0.0] EPS0003.nlfc.dat.interbandonly
#  2 [0.0, 0.0, 0.00216387, 0.0] EPS0004.nlfc.dat.interbandonly
#  3 [0.0, 0.0, 0.00306015, 0.0] EPS0005.nlfc.dat.interbandonly
#  4 [0.0, 0.0, 0.00432774, 0.0] EPS0006.nlfc.dat.interbandonly
# recid omega eps1.... eps2... where num of eps is the number of EPSfiles
0 0.0 8.89943379222257 8.77405022315074 8.70787415481077 8.66411138931297 8.63934087948562 0.0 0.0 0.0 0.0 0.0
1 1.015e-05 8.89943380944251 8.77405024041701 8.70787417210327 8.66411140661315 8.63934089678597 0.0 0.0 0.0 0.0 0.0
2 3.076e-05 8.89943395036483 8.77405038171846 8.70787431361937 8.66411154819207 8.63934103836628 0.0 0.0 0.0 0.0 0.0
3 5.2e-05 8.89943424411809 8.77405067626202 8.70787460861038 8.66411184331405 8.63934133349117 0.0 0.0 0.0 0.0 0.0
4 7.389e-05 8.89943470454189 8.77405113792453 8.70787507097421 8.66411230588314 8.63934179606483 0.0 0.0 0.0 0.0 0.0
5 9.644e-05 8.89943534646534 8.774051781575 8.70787571560246 8.66411295079757 8.63934244098562 0.0 0.0 0.0 0.0 0.0
6 0.0001197 8.89943618577229 8.77405262314 8.7078765584459 8.6641137940152 8.63934328421156 0.0 0.0 0.0 0.0 0.0
7 0.0001436 8.89943723947087 8.77405367967343 8.70787761658432 8.66411485262338 8.63934434283018 0.0 0.0 0.0 0.0 0.0
8 0.0001683 8.89943852576714 8.77405496943032 8.7078789083005 8.66411614491301 8.63934563513256 0.0 0.0 0.0 0.0 0.0
9 0.0001937 8.89944006414384 8.77405651194583 8.70788045315926 8.66411769045761 8.6393471806924 0.0 0.0 0.0 0.0 0.0
10 0.0002199 8.89944187544382 8.77405832811888 8.70788227209128 8.66411951019715 8.63934900044989 0.0 0.0 0.0 0.0 0.0
11 0.0002469 8.89944398195889 8.77406044030126 8.7078843874823 8.66412162652729 8.63935111680091 0.0 0.0 0.0 0.0 0.0
12 0.0002748 8.89944640752444 8.77406287239249 8.70788682326815 8.66412406339451 8.63935355369216 0.0 0.0 0.0 0.0 0.0
13 0.0003034 8.89944917761981 8.77406564994043 8.70788960503549 8.66412684639682 8.63935633672192 0.0 0.0 0.0 0.0 0.0
14 0.000333 8.89945231947519 8.77406880024856 8.70789276012927 8.6641300028913 8.63935949324753 0.0 0.0 0.0 0.0 0.0
15 0.0003634 8.89945586218526 8.77407235248981 8.70789631776676 8.66413356210819 8.63936305249953 0.0 0.0 0.0 0.0 0.0
16 0.0003948 8.89945983683003 8.77407633782781 8.70790030915892 8.66413755527232 8.63936704570304 0.0 0.0 0.0 0.0 0.0
17 0.0004271 8.89946427660325 8.77408078954563 8.70790476763936 8.66414201573209 8.6393715062068 0.0 0.0 0.0 0.0 0.0
18 0.0004604 8.89946921694917 8.77408574318283 8.70790972880165 8.66414697909687 8.63937646962052 0.0 0.0 0.0 0.0 0.0
19 0.0004948 8.89947469570754 8.774091236681 8.707915230645 8.66415248338274 8.63938197396068 0.0 0.0 0.0 0.0 0.0
20 0.0005301 8.89948075326818 8.7740973105386 8.70792131372939 8.66415856916769 8.63938805980564 0.0 0.0 0.0 0.0 0.0
21 0.0005666 8.89948743273511 8.77410400797562 8.70792802134047 8.66416527975659 8.63939477046071 0.0 0.0 0.0 0.0 0.0
22 0.0006041 8.89949478010103 8.77411137510847 8.70793539966469 8.66417266135637 8.63940215213328 0.0 0.0 0.0 0.0 0.0
23 0.0006428 8.89950284443276 8.77411946113597 8.7079434979756 8.66418076326248 8.63941025411927 0.0 0.0 0.0 0.0 0.0
24 0.0006827 8.89951167806859 8.77412831853722 8.70795236883203 8.66418963805705 8.63941912900135 0.0 0.0 0.0 0.0 0.0
25 0.0007238 8.89952133682782 8.77413800328167 8.70796206828843 8.66419934181945 8.63942883285941 0.0 0.0 0.0 0.0 0.0
26 0.0007662 8.89953188023356 8.77414857505255 8.7079726561187 8.66420993435009 8.63943942549448 0.0 0.0 0.0 0.0 0.0
27 0.0008098 8.8995433717497 8.77416009748448 8.7079841960541 8.66422147940852 8.63945097066672 0.0 0.0 0.0 0.0 0.0
28 0.0008548 8.89955587903259 8.7741726384158 8.70799675603602 8.66423404496629 8.63946353634835 0.0 0.0 0.0 0.0 0.0
29 0.0009011 8.89956947419872 8.77418627015698 8.70801040848475 8.66424770347585 8.63947719499253 0.0 0.0 0.0 0.0 0.0
30 0.0009488 8.89958423410896 8.77420106977567 8.70802523058501 8.66426253215616 8.63949202381899 0.0 0.0 0.0 0.0 0.0
31 0.000998 8.89960024067115 8.7742171194 8.70804130458966 8.6642786132966 8.6395081051179 0.0 0.0 0.0 0.0 0.0
32 0.001049 8.89961758116118 8.77423450654065 8.70805871814228 8.66429603457966 8.63952552657263 0.0 0.0 0.0 0.0 0.0
33 0.001101 8.89963634856467 8.77425332443332 8.7080775646202 8.66431488942409 8.63954438160283 0.0 0.0 0.0 0.0 0.0
34 0.001155 8.89965664193978 8.77427367240264 8.70809794349888 8.66433527734953 8.63956476972912 0.0 0.0 0.0 0.0 0.0
35 0.00121 8.89967856680304 8.77429565624893 8.70811996073933 8.664357304364 8.63958679696057 0.0 0.0 0.0 0.0 0.0
36 0.001267 8.89970223553925 8.77431938865928 8.70814372919976 8.66438108337581 8.63961057620657 0.0 0.0 0.0 0.0 0.0
37 0.001326 8.89972776783728 8.77434498964445 8.70816936907321 8.66440673463133 8.6396362277147 0.0 0.0 0.0 0.0 0.0
38 0.001387 8.8997552911531 8.77437258700321 8.7081970083525 8.66443438618019 8.63966387953582 0.0 0.0 0.0 0.0 0.0
39 0.00145 8.89978494120177 8.77440231681562 8.70822678332436 8.66446417436961 8.63969366801849 0.0 0.0 0.0 0.0 0.0
40 0.001514 8.89981686248068 8.77443432396769 8.70825883909477 8.66449624436996 8.63972573833449 0.0 0.0 0.0 0.0 0.0
41 0.00158 8.8998512088252 8.77446876270846 8.70829333014704 8.66453075073309 8.63976024503719 0.0 0.0 0.0 0.0 0.0
42 0.001649 8.89988814399937 8.77450579724238 8.70833042093493 8.66456785798574 8.63979735265494 0.0 0.0 0.0 0.0 0.0
43 0.001719 8.89992784232382 8.77454560235883 8.70837028651321 8.66460774126037 8.63983723632188 0.0 0.0 0.0 0.0 0.0
44 0.001792 8.8999704893428 8.774588364101 8.70841311320752 8.66465058696529 8.63988008244815 0.0 0.0 0.0 0.0 0.0
45 0.001867 8.90001628253324 8.77463428047679 8.70845909932642 8.66469659349704 8.63992608943222 0.0 0.0 0.0 0.0 0.0
46 0.001944 8.9000654320583 8.77468356221445 8.70850845591805 8.66474597199739 8.63997546841791 0.0 0.0 0.0 0.0 0.0
47 0.002024 8.90011816156814 8.77473643356544 8.70856140757432 8.66479894715791 8.64002844409896 0.0 0.0 0.0 0.0 0.0
48 0.002106 8.90017470905111 8.77479313315792 8.70861819328561 8.66485575807497 8.64008525557406 0.0 0.0 0.0 0.0 0.0
49 0.00219 8.90023532773812 8.77485391490361 8.70867906734907 8.66491665915856 8.64014615725567 0.0 0.0 0.0 0.0 0.0
50 0.002277 8.90030028706415 8.77491904896173 8.70874430033398 8.66498192109795 8.64021141983566 0.0 0.0 0.0 0.0 0.0
51 0.002367 8.90036987368975 8.77498882276341 8.70881418010769 8.6650518318882 8.64028133131187 0.0 0.0 0.0 0.0 0.0
52 0.002459 8.90044439258709 8.77506354210054 8.7088890129262 8.66512669792109 8.64035619807905 0.0 0.0 0.0 0.0 0.0
53 0.002554 8.90052416819408 8.77514353228297 8.70896912459301 8.66520684514466 8.64043634608833 0.0 0.0 0.0 0.0 0.0
54 0.002652 8.90060954564096 8.77522913936849 8.709054861691 8.66529262029545 8.64052212207961 0.0 0.0 0.0 0.0 0.0
55 0.002753 8.90070089205428 8.77532073147018 8.70914659289181 8.66538439220857 8.6406138948915 0.0 0.0 0.0 0.0 0.0
56 0.002858 8.90079859794281 8.77541870014611 8.70924471034754 8.66548255321 8.64071205685375 0.0 0.0 0.0 0.0 0.0
57 0.002965 8.90090307867055 8.77552346187626 8.70934963116998 8.66558752059644 8.64081702526702 0.0 0.0 0.0 0.0 0.0
58 0.003075 8.9010147760228 8.7756354596328 8.70946179900319 8.66569973820861 8.64092924397624 0.0 0.0 0.0 0.0 0.0
59 0.003189 8.90113415987075 8.77575516454905 8.70958168569508 8.66581967810355 8.64104918504294 0.0 0.0 0.0 0.0 0.0
60 0.003307 8.90126172994103 8.77588307769392 8.70970979307442 8.66594784233243 8.64117735052302 0.0 0.0 0.0 0.0 0.0
61 0.003428 8.90139801769712 8.77601973195814 8.70984665483999 8.66608476483053 8.64131427435677 0.0 0.0 0.0 0.0 0.0
62 0.003553 8.90154358833933 8.77616569405973 8.70999283856899 8.66623101342652 8.64146052437821 0.0 0.0 0.0 0.0 0.0
63 0.003681 8.90169904293141 8.77632156667624 8.71014894785261 8.66638719197899 8.64161670445157 0.0 0.0 0.0 0.0 0.0
64 0.003813 8.90186502066162 8.77648799071185 8.7103156245664 8.66655394264781 8.64178345674267 0.0 0.0 0.0 0.0 0.0
65 0.00395 8.90204220124691 8.7766656477079 8.71049355128457 8.66673194830944 8.64196146413435 0.0 0.0 0.0 0.0 0.0
66 0.00409 8.90223130748966 8.77685526240655 8.71068345384742 8.6669219351256 8.64215145279499 0.0 0.0 0.0 0.0 0.0
67 0.004235 8.90243310799656 8.77705760547682 8.71088610409141 8.66712467527446 8.64235419490986 0.0 0.0 0.0 0.0 0.0
68 0.004385 8.9026484200702 8.77727349641385 8.71110232275297 8.66734098985571 8.64257051158617 0.0 0.0 0.0 0.0 0.0
69 0.004538 8.90287811278482 8.7775038066229 8.71133298255691 8.66757175198036 8.64280127594286 0.0 0.0 0.0 0.0 0.0
70 0.004697 8.90312311025773 8.7777494626994 8.71157901150154 8.66781789005731 8.64304741639722 0.0 0.0 0.0 0.0 0.0
71 0.00486 8.90338439512957 8.77801144991845 8.71184139635329 8.66808039128947 8.64330992016101 0.0 0.0 0.0 0.0 0.0
72 0.005029 8.90366301226705 8.77829081594738 8.71212118636489 8.66836030539358 8.64358983696033 0.0 0.0 0.0 0.0 0.0
73 0.005202 8.90396007270236 8.77858867479561 8.71241949723114 8.66865874855766 8.64388828299311 0.0 0.0 0.0 0.0 0.0
74 0.005381 8.90427675782544 8.77890621101799 8.71273751529844 8.66897690765248 8.64420644514053 0.0 0.0 0.0 0.0 0.0
75 0.005565 8.90461432384549 8.77924468418807 8.71307650204482 8.66931604471343 8.64454558544896 0.0 0.0 0.0 0.0 0.0
76 0.005755 8.90497410653942 8.77960543365916 8.71343779884806 8.66967750171077 8.64490704590028 0.0 0.0 0.0 0.0 0.0
77 0.00595 8.90535752630671 8.77998988363244 8.71382283206129 8.67006270562746 8.64529225348964 0.0 0.0 0.0 0.0 0.0
78 0.006152 8.90576609355134 8.78039954855307 8.71423311841722 8.67047317386568 8.64570272563204 0.0 0.0 0.0 0.0 0.0
79 0.00636 8.90620141441175 8.78083603885526 8.71467027078163 8.67091052000281 8.6461400759184 0.0 0.0 0.0 0.0 0.0
80 0.006574 8.90666519686381 8.78130106708122 8.71513600428142 8.67137645992222 8.64660602024627 0.0 0.0 0.0 0.0 0.0
81 0.006794 8.90715925722078 8.78179645439816 8.71563214283128 8.67187281834264 8.64710238334929 0.0 0.0 0.0 0.0 0.0
82 0.007021 8.90768552705836 8.78232413754145 8.716160626087 8.67240153577456 8.64763110575356 0.0 0.0 0.0 0.0 0.0
83 0.007255 8.90824606059295 8.78288617621222 8.71672351685411 8.67296467593198 8.64819425118945 0.0 0.0 0.0 0.0 0.0
84 0.007497 8.90884304254552 8.7834847609616 8.71732300898356 8.6735644336316 8.6487940144908 0.0 0.0 0.0 0.0 0.0
85 0.007745 8.90947879652381 8.78412222159486 8.71796143578834 8.67420314321288 8.64943273001497 0.0 0.0 0.0 0.0 0.0
86 0.008001 8.91015579395949 8.78480103613169 8.71864127901675 8.6748832875153 8.65011288062011 0.0 0.0 0.0 0.0 0.0
87 0.008265 8.9108766636392 8.78552384036197 8.7193651784222 8.67560750745217 8.65083710723901 0.0 0.0 0.0 0.0 0.0
88 0.008537 8.91164420187156 8.78629343803904 8.72013594197135 8.67637861222309 8.65160821909152 0.0 0.0 0.0 0.0 0.0
89 0.008818 8.91246138333517 8.78711281175569 8.72095655673582 8.67719959021036 8.65242920458095 0.0 0.0 0.0 0.0 0.0
90 0.009107 8.91333137265694 8.78798513455221 8.72183020051717 8.67807362060883 8.65330324292393 0.0 0.0 0.0 0.0 0.0
91 0.009404 8.91425753677315 8.78891378230919 8.72276025425753 8.67900408584176 8.65423371656622 0.0 0.0 0.0 0.0 0.0
92 0.009711 8.91524345813055 8.78990234698235 8.72375031529353 8.67999458482035 8.6552242244422 0.0 0.0 0.0 0.0 0.0
93 0.01003 8.91629294878933 8.79095465074142 8.72480421151551 8.68104894710885 8.65627859613995 0.0 0.0 0.0 0.0 0.0
94 0.01035 8.91741006549477 8.7920747610801 8.72592601649903 8.68217124806246 8.65740090703906 0.0 0.0 0.0 0.0 0.0
95 0.01069 8.91859912579029 8.79326700696986 8.72712006568177 8.68336582501087 8.65859549449409 0.0 0.0 0.0 0.0 0.0
96 0.01103 8.91986472525035 8.79453599613633 8.72839097366443 8.68463729456642 8.65986697514261 0.0 0.0 0.0 0.0 0.0
97 0.01139 8.92121175591932 8.79588663354441 8.72974365272197 8.6859905711429 8.66122026342389 0.0 0.0 0.0 0.0 0.0
98 0.01176 8.92264542604869 8.79732414118492 8.73118333261812 8.68743088677826 8.66266059140141 0.0 0.0 0.0 0.0 0.0
99 0.01214 8.92417128123464 8.79885407926465 8.73271558182521 8.68896381236309 8.66419352999117 0.0 0.0 0.0 0.0 0.0
100 0.01253 8.92579522706577 8.8004823689104 8.73434633025974 8.69059528038545 8.66582501170624 0.0 0.0 0.0 0.0 0.0
101 0.01293 8.92752355340196 8.80221531650752 8.73608189365485 8.69233160931319 8.66756135503886 0.0 0.0 0.0 0.0 0.0
102 0.01334 8.92936296041625 8.80405963980581 8.73792899970211 8.69417952974627 8.66940929061233 0.0 0.0 0.0 0.0 0.0
103 0.01377 8.93132058654305 8.80602249593583 8.7398948161064 8.69614621248285 8.67137598924679 0.0 0.0 0.0 0.0 0.0
104 0.01421 8.93340403849168 8.80811151149518 8.74198698071312 8.69823929865851 8.67346909209788 0.0 0.0 0.0 0.0 0.0
105 0.01466 8.93562142349749 8.81033481487749 8.74421363388107 8.70046693213185 8.67569674304183 0.0 0.0 0.0 0.0 0.0
106 0.01513 8.93798138400172 8.81270107103518 8.74658345329194 8.70283779430771 8.67806762349801 0.0 0.0 0.0 0.0 0.0
107 0.01561 8.94049313496859 8.81521951888537 8.7491056914063 8.70536114160762 8.6805909898986 0.0 0.0 0.0 0.0 0.0
108 0.0161 8.94316650407109 8.81790001159051 8.75179021579757 8.70804684581948 8.68327671403742 0.0 0.0 0.0 0.0 0.0
109 0.01662 8.94601197499951 8.82075305996846 8.75464755261928 8.71090543758133 8.68613532655256 0.0 0.0 0.0 0.0 0.0
110 0.01714 8.94904073417413 8.82378987931365 8.75768893348729 8.71394815328146 8.68917806382537 0.0 0.0 0.0 0.0 0.0
111 0.01768 8.95226472117367 8.82702243994185 8.76092634609005 8.7171869856876 8.69241691860821 0.0 0.0 0.0 0.0 0.0
112 0.01824 8.95569668322417 8.83046352180349 8.76437258887173 8.72063473865052 8.69586469472635 0.0 0.0 0.0 0.0 0.0
113 0.01882 8.9593502341324 8.83412677355048 8.76804133017417 8.72430508626768 8.6995350662398 0.0 0.0 0.0 0.0 0.0
114 0.01941 8.96323991808993 8.83802677648315 8.77194717226407 8.72821263693375 8.70344264149155 0.0 0.0 0.0 0.0 0.0
115 0.02002 8.96738127882304 8.84217911385372 8.77610572072257 8.73237300275522 8.70760303251966 0.0 0.0 0.0 0.0 0.0
116 0.02065 8.97179093461978 8.84660044605781 8.7805336597292 8.73680287486113 8.71203293036498 0.0 0.0 0.0 0.0 0.0
117 0.0213 8.97648665982728 8.85130859230862 8.78524883383514 8.74152010520502 8.71675018686968 0.0 0.0 0.0 0.0 0.0
118 0.02197 8.98148747348494 8.85632261946002 8.79027033689282 8.74654379552531 8.72177390363367 0.0 0.0 0.0 0.0 0.0
119 0.02266 8.98681373584027 8.86166293872677 8.79561860889059 8.75189439421313 8.72712452887775 0.0 0.0 0.0 0.0 0.0
120 0.02337 8.99248725358846 8.86735141114384 8.80131554153504 8.75759380193004 8.73282396305599 0.0 0.0 0.0 0.0 0.0
121 0.0241 8.99853139478254 8.87341146271332 8.80738459353044 8.76366548692565 8.73889567416719 0.0 0.0 0.0 0.0 0.0
122 0.02486 9.00497121448576 8.87986821031204 8.81385091662883 8.77013461112877 8.74536482383878 0.0 0.0 0.0 0.0 0.0
123 0.02564 9.01183359237813 8.88674859957323 8.8207414936655 8.77702816822692 8.75225840539798 0.0 0.0 0.0 0.0 0.0
124 0.02644 9.0191473836933 8.89408155612063 8.8280852899588 8.7843751351137 8.75960539530951 0.0 0.0 0.0 0.0 0.0
125 0.02726 9.02694358505106 8.90189815172204 8.83591341964269 8.79220663827238 8.76743691954788 0.0 0.0 0.0 0.0 0.0
126 0.02811 9.03525551697007 8.91023178714943 8.84425932872023 8.80055613688457 8.77578643669299 0.0 0.0 0.0 0.0 0.0
127 0.02899 9.0441190251012 8.91911839378829 8.85315899688207 8.80945962470806 8.78468993979271 0.0 0.0 0.0 0.0 0.0
128 0.02989 9.05357270251884 8.92859665633656 8.86265116043182 8.81895585306629 8.7941861793346 0.0 0.0 0.0 0.0 0.0
129 0.03082 9.06365813575682 8.93870825928287 8.8727775590096 8.82908657764108 8.80431691001792 0.0 0.0 0.0 0.0 0.0
130 0.03178 9.07442017768334 8.94949816026198 8.88358320921373 8.8398968321691 8.81512716442596 0.0 0.0 0.0 0.0 0.0
131 0.03277 9.085907250791 8.96101489386745 8.89511670870245 8.85143523262429 8.82666555718011 0.0 0.0 0.0 0.0 0.0
132 0.03379 9.09817168504485 8.97331091006886 8.9074305749255 8.86375431603678 8.83898462372569 0.0 0.0 0.0 0.0 0.0
133 0.03484 9.11127009510475 8.98644295205502 8.9205816233095 8.87691091877289 8.85214119857307 0.0 0.0 0.0 0.0 0.0
134 0.03592 9.12526380253738 9.00047247912384 8.93463139052086 8.89096659990015 8.86619683861703 0.0 0.0 0.0 0.0 0.0
135 0.03703 9.14021930958697 9.01546614119453 8.94964660938506 8.90598811621748 8.88121829811315 0.0 0.0 0.0 0.0 0.0
136 0.03818 9.1562088322167 9.03149631266111 8.96569974318512 8.92204795667358 8.89727806303274 0.0 0.0 0.0 0.0 0.0
137 0.03936 9.17331090150533 9.04864169468022 8.98286958843636 8.93922494527175 8.91445495389261 0.0 0.0 0.0 0.0 0.0
138 0.04058 9.19161104414307 9.06698799664606 9.00124195689518 8.95760492321945 8.93283480781571 0.0 0.0 0.0 0.0 0.0
139 0.04184 9.21120255478155 9.08662870961863 9.02091044957317 8.9772815230951 8.95251125259223 0.0 0.0 0.0 0.0 0.0
140 0.04313 9.23218737544273 9.10766598692157 9.04197733797926 8.99835705025546 8.97358658796104 0.0 0.0 0.0 0.0 0.0
141 0.04447 9.25467710019256 9.13021165012988 9.06455457081689 9.02094348971175 8.99617279233535 0.0 0.0 0.0 0.0 0.0
142 0.04584 9.27879412697432 9.15438834235828 9.08876492805503 9.04516366039412 9.02039267688685 0.0 0.0 0.0 0.0 0.0
143 0.04726 9.30467298306433 9.18033085533137 9.11474334886319 9.07115254329559 9.04638121347273 0.0 0.0 0.0 0.0 0.0
144 0.04872 9.33246185629035 9.20818766239747 9.14263846558259 9.09905881566835 9.07428706857025 0.0 0.0 0.0 0.0 0.0
145 0.05022 9.36232437126171 9.23812269676013 9.17261438301939 9.12904663055886 9.1042743824949 0.0 0.0 0.0 0.0 0.0
146 0.05177 9.39444165881029 9.27031742315509 9.20485275130125 9.16129768992334 9.13652484213024 0.0 0.0 0.0 0.0 0.0
147 0.05337 9.42901477818701 9.30497326255181 9.23955519189185 9.19601367091789 9.17124010674723 0.0 0.0 0.0 0.0 0.0
148 0.05501 9.46626756604559 9.34231444395028 9.27694615085202 9.23341907945084 9.20864466097878 0.0 0.0 0.0 0.0 0.0
149 0.05671 9.50645000487649 9.38259137598379 9.31727627207877 9.27376462372634 9.24898918765096 0.0 0.0 0.0 0.0 0.0
150 0.05846 9.54984222771732 9.42608465520832 9.36082640742626 9.31733122467906 9.2925545773347 0.0 0.0 0.0 0.0 0.0
151 0.06026 9.59675930756027 9.4731098595654 9.40791241222303 9.36443481180786 9.33965672307869 0.0 0.0 0.0 0.0 0.0
152 0.06211 9.64755702158049 9.52402331722045 9.45889091641825 9.41543209463048 9.39065229048351 0.0 0.0 0.0 0.0 0.0
153 0.06403 9.70263883588681 9.5792290965714 9.51416631718784 9.47072755557433 9.4459457088495 0.0 0.0 0.0 0.0 0.0
154 0.066 9.76246443135617 9.63918753810227 9.57419931371513 9.53078198499366 9.50599770397776 0.0 0.0 0.0 0.0 0.0
155 0.06803 9.82756019309636 9.70442575076184 9.63951740687232 9.59612298100325 9.57133579516418 0.0 0.0 0.0 0.0 0.0
156 0.07012 9.89853222673089 9.77555063622755 9.71072792721314 9.66735797748514 9.64256731953697 0.0 0.0 0.0 0.0 0.0
157 0.07227 9.97608266129105 9.85326520104138 9.7885343513192 9.7451905602299 9.72039574341334 0.0 0.0 0.0 0.0 0.0
158 0.0745 10.0610302773001 9.93838919545171 9.87375694539109 9.83044110998304 9.80564129904408 0.0 0.0 0.0 0.0 0.0
159 0.07678 10.1543369003729 10.0318855195908 9.96735917677056 9.92407321290058 9.89926738667753 0.0 0.0 0.0 0.0 0.0
160 0.07914 10.2571415897496 10.1348944267894 10.0704819232413 10.0272278679842 10.0024147706842 0.0 0.0 0.0 0.0 0.0
161 0.08157 10.370805531879 10.2487784346181 10.1844883907199 10.141268401682 10.1164464787071 0.0 0.0 0.0 0.0 0.0
162 0.08408 10.4969718943603 10.3751821995653 10.3110239952155 10.2678403448688 10.2430076572186 0.0 0.0 0.0 0.0 0.0
163 0.08666 10.6376470001761 10.516113716036 10.4520975696048 10.4089526317008 10.3841067401695 0.0 0.0 0.0 0.0 0.0
164 0.08932 10.7953125651548 10.674056583561 10.6101936387743 10.5670898621932 10.5422276681684 0.0 0.0 0.0 0.0 0.0
165 0.09206 10.9730843491253 10.8521286938776 10.7884311140604 10.745370976638 10.7204884991961 0.0 0.0 0.0 0.0 0.0
166 0.09488 11.1749421992865 11.0543123178912 10.9907933855291 10.9477793156162 10.9228713727923 0.0 0.0 0.0 0.0 0.0
167 0.09779 11.4060736855022 11.2857977940309 11.2224720106722 11.1795062557853 11.15456599755 0.0 0.0 0.0 0.0 0.0
