#  0 [0.0, 0.0, 0.00108194, 0.0] EPS0001.nlfc.dat.intrabandonly
#  1 [0.0, 0.0, 0.00153007, 0.0] EPS0002.nlfc.dat.intrabandonly
#  2 [0.0, 0.0, 0.00216387, 0.0] EPS0003.nlfc.dat.intrabandonly
#  3 [0.0, 0.0, 0.00306015, 0.0] EPS0004.nlfc.dat.intrabandonly
#  4 [0.0, 0.0, 0.00432774, 0.0] EPS0005.nlfc.dat.intrabandonly
# recid omega eps1.... eps2... where num of eps is the number of EPSfiles
0 0.0 1258109.46266369 631446.813657192 316801.980068227 158879.644883463 79530.8113594584 0.0 0.0 0.0 0.0 0.0
1 1.015e-05 1243580.88424189 625162.051549019 314736.350845873 158271.190839571 79352.612449233 53200.5579276936 22151.3030362607 8636.34703634491 3263.58695088741 1210.06784399689
2 3.076e-05 1215574.66433142 611649.299489102 307817.558045888 155493.474042389 78471.1364609479 94707.3191011942 38757.6443923036 17903.4276775455 7831.90730648334 3127.24670640596
3 5.2e-05 1198466.92213138 605573.816026964 304157.671567653 152902.690682213 77227.4286729016 148876.954326945 55045.4397826293 20554.0406616283 9243.63627744973 4319.85857965145
4 7.389e-05 1170889.03539115 599168.41855119 303198.955348835 152189.0788372 76312.3780887839 197770.936817319 74777.9316298099 27713.7440071997 10279.7164719831 4608.31446633558
5 9.644e-05 1142807.56195157 589356.490931573 300794.610748987 152011.965483391 76066.8648913678 231157.535686817 93355.3779009533 34951.3925738149 12865.9598765268 4917.31035384552
6 0.0001197 1123160.89022339 577430.823161299 297560.387953592 151249.418683116 76096.9537156004 260551.346858634 108504.148370451 42046.7898733315 15665.4785023454 5668.43040408142
7 0.0001436 1104453.87551447 567928.145960865 293545.771668945 150216.69973572 75965.6725581587 296870.631952947 117918.994706094 48600.7427943842 18277.61567926 6775.56537508324
8 0.0001683 1086354.75542458 561957.902297796 288997.328505898 148999.287490842 75626.8781472642 325585.47848661 129751.706976499 54172.9176804562 20961.5861570339 7805.83465207909
9 0.0001937 1070280.90315567 554513.871581729 284581.603751129 147488.769118334 75246.0656252872 360341.260229907 144287.329724237 58274.0942975284 23508.5351948812 8792.18181404383
10 0.0002199 1051663.64512115 546819.737214148 282459.726946641 145822.6547823 74826.3399909402 393082.752796953 154873.664203691 60668.2927315616 25739.2634609149 9809.6459334643
11 0.0002469 1033375.06704266 541021.032436314 280525.425159954 144032.041536582 74309.2476475011 422837.00065016 166955.811269812 67353.2655777734 27782.0017353772 10844.8731825742
12 0.0002748 1018989.8236051 534626.566674946 276942.615228471 142244.006651728 73701.3175410542 448416.548398958 180456.534411746 72154.3146359586 29252.0993862346 11800.9858497757
13 0.0003034 1016961.89357311 527321.378339433 273959.91634053 141283.794551135 73060.0515139119 471537.650435136 193244.126273638 76295.8331493045 30024.2212677539 12675.4536633063
14 0.000333 1019617.66340523 519984.562467301 271778.148016726 141022.814274372 72390.1175772237 516174.015603293 205227.381552295 80539.1313261583 31924.4089075779 13506.1580606618
15 0.0003634 1017814.45755638 513064.527097438 269590.825578797 139792.671261436 71637.5106459678 565808.01803969 216307.985521351 85920.0379537352 34964.025576871 14269.7568144605
16 0.0003948 995195.244654598 507865.171061938 266853.291817707 138138.091326115 70926.1942305926 634553.401749899 225760.531171552 91182.6657437883 36337.3317890463 14733.7287255792
17 0.0004271 971358.853490083 507754.715635317 263937.82957921 137087.735648308 70571.4575294766 652239.683145483 234490.664997303 96247.6646134755 37950.306024081 15017.2177674998
18 0.0004604 996938.618533669 509439.28232269 260996.334991704 136274.581372899 70545.3380413331 659854.141889987 252058.030180227 101086.890870532 39594.2997879618 15685.0963012443
19 0.0004948 1092773.75121229 508429.046721005 258157.422527471 135478.298502896 70092.6546067969 686892.350040891 271700.550567994 105669.96929451 41734.7608520798 17047.3972508875
20 0.0005301 1595272.24545022 506772.341257033 255521.9501536 134447.230282398 69364.9339936288 708918.258803141 293330.002776708 109959.796056625 43901.0157558251 17609.4394304007
21 0.0005666 891606.822557359 493676.623481728 253744.579000562 133306.161108411 68885.4562886662 2565099.73691088 324272.763214878 113483.517879496 46019.1922232159 18265.6235670735
22 0.0006041 12447.5585763651 480911.150556975 254132.664959676 132116.586671513 68471.4684335125 1097913.60178048 325801.325426866 117060.357040153 48080.7752738265 18898.4640632394
23 0.0006428 254882.583981616 489569.308564481 255111.06435561 130915.202400162 68166.5126998149 1150226.37140061 328162.624655221 124316.546505875 50076.5549357669 19582.2070056062
24 0.0006827 216892.157769787 515880.271967419 254824.509683835 129738.223445374 67856.8320899538 1043517.97901752 338808.762238514 132376.35088001 51996.5757633888 20463.6407156665
25 0.0007238 244332.394268151 580855.385819667 254285.324527198 128624.27648243 67449.4468528833 992080.62266122 350130.456318977 140733.246568784 53830.087433335 21370.0038494799
26 0.0007662 264787.071755798 869210.069685224 253315.314821381 127612.993064596 66989.103693716 1012257.52207896 382424.619263769 150991.225159895 55542.3801895917 22265.3327265353
27 0.0008098 337134.598342459 439012.942494184 246259.247938191 127038.091112926 66500.4417933229 983853.025564506 1447040.15384009 164567.842122623 56912.6810192693 23146.9013455945
28 0.0008548 720797.890238957 -60498.3043492271 240369.979969374 127383.486372029 65995.5999046512 1052838.98217733 544895.909999313 162868.575783253 58471.9492940452 24011.7514522843
29 0.0009011 559497.813155006 119205.888948546 244502.618451425 127903.875871158 65484.9474589125 2376701.49970765 571523.991618872 163693.708888883 61568.1775020993 24856.681157249
30 0.0009488 -1412524.60537057 109321.67414372 254704.690200678 127869.804547455 64979.4978419432 3294874.16110567 537682.270481343 167805.636974592 64978.4993135151 25678.2234070367
31 0.000998 -2103703.6029425 111095.271274713 275330.033100992 127614.384030783 64492.1733932194 251898.898383914 509327.094338088 172763.314725387 68508.2858615748 26472.6285738036
32 0.001049 -1216095.44247969 125468.765370599 348148.194068865 127531.584414063 64034.4836494412 320714.099297375 494291.842132974 177038.236593861 72196.2600404304 27235.8450158405
33 0.001101 -969883.557441965 135826.95699029 407879.392250044 126949.682630216 63633.7922533852 1299.49363467708 507679.407822233 350271.286585675 77330.7844485943 27935.1026812656
34 0.001155 -690864.133091256 177537.851804841 150808.934396091 123226.773076078 63462.0767856283 -0.0 488668.746154141 660781.220987134 83200.213465827 28494.5763693181
35 0.00121 -549753.259187744 353053.723926076 -25459.8147971685 120628.252188003 63665.5051566864 -0.0 527211.549811207 271513.678951452 81515.047080636 29235.3368141069
36 0.001267 -454612.18798378 472940.184322679 61814.5491433317 122743.897755376 63895.6467901646 -0.0 1011320.17753292 282215.491963273 81863.4810444116 30595.0311850318
37 0.001326 -384745.773615158 -570672.085913562 57440.4490577793 127128.112049565 63886.0588321238 -0.0 2063163.53791494 276699.729255673 83425.2571410836 32082.8194132628
38 0.001387 -330877.202338255 -1220431.74829762 52981.6682845341 134982.636879293 63767.303957212 -0.0 277284.500203282 258904.908391328 85624.8551444304 33622.0326844386
39 0.00145 -287956.676109442 -687755.979179489 59198.0526862375 151990.819723077 63635.8319145971 -0.0 117703.782996699 247354.46508683 87748.7672828513 35215.1546702962
40 0.001514 -252930.915814934 -534254.666020641 66284.0433755325 229411.796183599 63607.8931170646 -0.0 118519.865274601 250036.85337188 89031.7014318888 36975.8163220466
41 0.00158 -223819.574424244 -440631.889426063 69816.7064749248 149307.408630769 63117.7755504086 -0.0 -0.0 253083.735595736 350909.185018794 39566.302081022
42 0.001649 -199270.596943546 -329824.98447274 95656.6010244289 -2603.31535888499 61059.0932525184 -0.0 -0.0 243150.638302568 204479.464313019 42029.3265638644
43 0.001719 -178323.676790913 -269938.916267606 181601.949987864 15147.2619367137 59857.008636417 -0.0 -0.0 268308.773812383 135026.938949862 40804.9032496846
44 0.001792 -160274.897650128 -227706.605174507 273742.146242534 35713.505754747 60826.6477063495 -0.0 -0.0 478328.182984669 140829.746499082 41038.4062597981
45 0.001867 -144594.785779228 -195709.113194793 -221311.911654926 30755.56064928 62494.7061844036 -0.0 -0.0 1084193.22809622 140133.817768014 41674.5911556172
46 0.001944 -130876.402336114 -170443.525894245 -629855.168981171 27291.4102952968 65245.3613715717 -0.0 -0.0 266036.309671358 130043.320060676 42656.8448959202
47 0.002024 -118801.215160232 -149925.164843092 -400953.114018044 29343.0331809574 70261.8209923138 -0.0 -0.0 60883.6040441493 125201.812254928 43624.9905277033
48 0.002106 -108115.945850332 -132913.814119484 -297215.309279411 32857.178673612 82582.2178758898 -0.0 -0.0 84236.3475626538 123313.118666594 44442.8971907418
49 0.00219 -98616.4364598732 -118582.859703895 -253209.177564448 34488.2021127309 128599.742413151 -0.0 -0.0 2584.12144030877 126941.195950545 52139.8017090331
50 0.002277 -90136.1441791317 -106354.923164648 -187405.563377226 38276.5865131303 59216.6599170553 -0.0 -0.0 -0.0 123993.809465092 219156.735331624
51 0.002367 -82537.7685747583 -95811.8888332212 -152389.905673877 57921.871409697 -22297.4630313791 -0.0 -0.0 -0.0 122290.658676846 75337.7374971686
52 0.002459 -75707.0486329327 -86642.100673013 -128404.477155836 115697.55916897 11608.3185850862 -0.0 -0.0 -0.0 140736.708912247 67309.2997310665
53 0.002554 -69548.0936994137 -78607.6764925195 -110405.224226831 125392.807457233 16855.5046722022 -0.0 -0.0 -0.0 310354.995771244 71247.5666613079
54 0.002652 -63979.818653765 -71523.3954358723 -96261.4974485041 -156441.769061054 14232.5739843708 -0.0 -0.0 -0.0 537201.813720508 69101.1340258324
55 0.002753 -58933.1870685147 -65242.5752392163 -84803.7650334652 -327862.258084566 13379.4716425181 -0.0 -0.0 -0.0 109032.308536852 64865.9647728586
56 0.002858 -54349.0543394485 -59647.3431084815 -75314.7200532268 -200332.669554869 14295.7555681664 -0.0 -0.0 -0.0 30540.3079293968 62641.2189862178
57 0.002965 -50176.4623083318 -54641.7626619095 -67322.3143038446 -148142.343631303 16100.2928118775 -0.0 -0.0 -0.0 37058.9756466367 61304.8279665907
58 0.003075 -46371.2777984781 -50146.8715515504 -60499.8677143444 -128521.156374115 17366.8360151715 -0.0 -0.0 -0.0 11694.7102041585 63016.4700551338
59 0.003189 -42895.0960485398 -46097.0295463914 -54612.4595434612 -101452.676530415 18058.1889511369 -0.0 -0.0 -0.0 -0.0 63047.8683473912
60 0.003307 -39714.3502788086 -42437.1852585585 -49485.9255524127 -81086.1319960922 24196.4891635514 -0.0 -0.0 -0.0 -0.0 60739.6023226263
61 0.003428 -36799.5831812086 -39120.7994174537 -44987.8858709231 -68351.1293209295 40196.3339576646 -0.0 -0.0 -0.0 -0.0 65586.266451675
62 0.003553 -34124.8467176102 -36108.245539745 -41015.6034145516 -58891.7704170078 81554.6916528204 -0.0 -0.0 -0.0 -0.0 87053.0965161974
63 0.003681 -31667.204417107 -33365.5631506427 -37487.9239131827 -51473.4215022342 11194.249231975 -0.0 -0.0 -0.0 -0.0 257189.863463816
64 0.003813 -29406.3161708555 -30863.475032638 -34339.7589606739 -45461.1158655037 -145157.585018694 -0.0 -0.0 -0.0 -0.0 186618.829632484
65 0.00395 -27324.0898952819 -28576.6047392425 -31518.2098387594 -40474.8046879165 -148691.258918297 -0.0 -0.0 -0.0 -0.0 17078.0780013276
66 0.00409 -25404.3877519015 -26482.8477848067 -28979.7819914439 -36267.1998057926 -83690.9996049478 -0.0 -0.0 -0.0 -0.0 14761.0549573653
67 0.004235 -23632.7771522139 -24562.8620221397 -26688.3433916632 -32668.1602653156 -71895.6727737877 -0.0 -0.0 -0.0 -0.0 20976.1633100203
68 0.004385 -21996.3187403061 -22799.6513713592 -24613.6018556536 -29555.7176986546 -63414.241862194 -0.0 -0.0 -0.0 -0.0 241.605857185453
69 0.004538 -20483.3850725973 -21178.2233276831 -22729.9516630925 -26839.5977428961 -47792.3489438242 -0.0 -0.0 -0.0 -0.0 -0.0
70 0.004697 -19083.5049114368 -19685.3052713903 -21015.5876957801 -24451.2377442264 -39574.485273256 -0.0 -0.0 -0.0 -0.0 -0.0
71 0.00486 -17787.2289945903 -18309.1080096627 -19451.8164713655 -22337.4396510869 -33781.7236784608 -0.0 -0.0 -0.0 -0.0 -0.0
72 0.005029 -16586.0138936275 -17039.1275332246 -18022.5141903808 -20456.1746873694 -29354.6978075215 -0.0 -0.0 -0.0 -0.0 -0.0
73 0.005202 -15472.1211745769 -15865.9779024927 -16713.6959932488 -18773.7201253054 -25824.9022735815 -0.0 -0.0 -0.0 -0.0 -0.0
74 0.005381 -14438.5295554075 -14781.2496533428 -15513.1703500407 -17262.6517056637 -22930.4248239764 -0.0 -0.0 -0.0 -0.0 -0.0
75 0.005565 -13478.8581484627 -13777.3892477875 -14410.2593348787 -15900.4030054364 -20508.0335230679 -0.0 -0.0 -0.0 -0.0 -0.0
76 0.005755 -12587.2991867961 -12847.5959786068 -13395.5704021318 -14668.2105989787 -18448.7875261711 -0.0 -0.0 -0.0 -0.0 -0.0
77 0.00595 -11758.5588997565 -11985.7334237487 -12460.8087957414 -13550.3278892217 -16676.3630248593 -0.0 -0.0 -0.0 -0.0 -0.0
78 0.006152 -10987.8054095052 -11186.2530927635 -11598.6222922993 -12533.4298904518 -15135.2800414137 -0.0 -0.0 -0.0 -0.0 -0.0
79 0.00636 -10270.622697149 -10444.1283358895 -10802.471879272 -11606.1561995957 -13784.0134215021 -0.0 -0.0 -0.0 -0.0 -0.0
80 0.006574 -9602.96983358224 -9754.79693101666 -10066.5233904019 -10758.7556015992 -12590.7305945099 -0.0 -0.0 -0.0 -0.0 -0.0
81 0.006794 -8981.1447886589 -9114.11103931822 -9385.55619398768 -9982.80652023264 -11530.5362628919 -0.0 -0.0 -0.0 -0.0 -0.0
82 0.007021 -8401.75223313406 -8518.29344346851 -8754.88584639348 -9270.9948206432 -10583.6264993254 -0.0 -0.0 -0.0 -0.0 -0.0
83 0.007255 -7861.67483219904 -7963.8991621019 -8170.29825260304 -8616.93550374497 -9734.01469416066 -0.0 -0.0 -0.0 -0.0 -0.0
84 0.007497 -7358.04760038544 -7447.78168226335 -7627.99336214431 -8015.02836240818 -8968.6296231291 -0.0 -0.0 -0.0 -0.0 -0.0
85 0.007745 -6888.23494727732 -6967.06317202263 -7124.53680948545 -7460.34018308029 -8276.66281734591 -0.0 -0.0 -0.0 -0.0 -0.0
86 0.008001 -6449.81009296618 -6519.10813482581 -6656.81820683508 -6948.50788991309 -7649.08720282062 -0.0 -0.0 -0.0 -0.0 -0.0
87 0.008265 -6040.53657639678 -6101.50004962847 -6222.01503428085 -6475.65835431335 -7078.29601347688 -0.0 -0.0 -0.0 -0.0 -0.0
88 0.008537 -5658.35161554021 -5712.02060843241 -5817.56126119457 -6038.34157286013 -6557.82781961213 -0.0 -0.0 -0.0 -0.0 -0.0
89 0.008818 -5301.35110905964 -5348.63122082446 -5441.11998369692 -5633.47464890172 -6082.15428885118 -0.0 -0.0 -0.0 -0.0 -0.0
90 0.009107 -4967.77609749471 -5009.45650165966 -5090.55948531542 -5258.29456626581 -5646.51435970774 -0.0 -0.0 -0.0 -0.0 -0.0
91 0.009404 -4656.0005219966 -4692.76949872153 -4763.93222688277 -4910.31816469162 -5246.78323745546 -0.0 -0.0 -0.0 -0.0 -0.0
92 0.009711 -4364.52014243444 -4396.97845080441 -4459.45635205141 -4587.30805035456 -4879.36785061949 -0.0 -0.0 -0.0 -0.0 -0.0
93 0.01003 -4091.94248878528 -4120.61489481127 -4175.49936116401 -4287.24342593912 -4541.12264886412 -0.0 -0.0 -0.0 -0.0 -0.0
94 0.01035 -3836.97774000313 -3862.32296537708 -3910.56366014146 -4008.29502036551 -4229.28120536306 -0.0 -0.0 -0.0 -0.0 -0.0
95 0.01069 -3598.43043179936 -3620.84975034073 -3663.27373617688 -3748.80345253276 -3941.4002193838 -0.0 -0.0 -0.0 -0.0 -0.0
96 0.01103 -3375.19191053801 -3395.03658347028 -3432.36474913769 -3507.26048541315 -3675.31333650002 -0.0 -0.0 -0.0 -0.0 -0.0
97 0.01139 -3166.23345700207 -3183.81117107261 -3216.67235873434 -3282.29272400656 -3429.09280703769 -0.0 -0.0 -0.0 -0.0 -0.0
98 0.01176 -2970.60001393175 -2986.180461298 -3015.12363280497 -3072.64738842688 -3201.01745142645 -0.0 -0.0 -0.0 -0.0 -0.0
99 0.01214 -2787.4044582987 -2801.22417687898 -2826.72890541408 -2877.17985687408 -2989.54573723281 -0.0 -0.0 -0.0 -0.0 -0.0
100 0.01253 -2615.82236439092 -2628.08894136044 -2650.57446950191 -2694.84272305159 -2793.29302729687 -0.0 -0.0 -0.0 -0.0 -0.0
101 0.01293 -2455.08721271266 -2465.98293689569 -2485.81600686903 -2524.67615558708 -2611.01225333154 -0.0 -0.0 -0.0 -0.0 -0.0
102 0.01334 -2304.48600056415 -2314.17103978867 -2331.67266904153 -2365.79937939348 -2441.5774192064 -0.0 -0.0 -0.0 -0.0 -0.0
103 0.01377 -2163.35521798522 -2171.97038461256 -2187.42173591626 -2217.40312847487 -2283.96945520002 -0.0 -0.0 -0.0 -0.0 -0.0
104 0.01421 -2031.0771555341 -2038.74631561296 -2052.3937870036 -2078.74294133039 -2137.26403563364 -0.0 -0.0 -0.0 -0.0 -0.0
105 0.01466 -1907.07651241692 -1913.908685811 -1925.9683289804 -1949.13319060407 -2000.62104452522 -0.0 -0.0 -0.0 -0.0 -0.0
106 0.01513 -1790.81727893931 -1796.90847201393 -1807.56983056077 -1827.94175345914 -1873.27543107845 -0.0 -0.0 -0.0 -0.0 -0.0
107 0.01561 -1681.799868697 -1687.23467349807 -1696.66412105738 -1714.58524349054 -1754.52924258702 -0.0 -0.0 -0.0 -0.0 -0.0
108 0.0161 -1579.55847826806 -1584.41147010056 -1592.75511459606 -1608.52473556263 -1643.74465891567 -0.0 -0.0 -0.0 -0.0 -0.0
109 0.01662 -1483.65865399772 -1487.9956126789 -1495.38182662081 -1509.26192472261 -1540.33788264294 -0.0 -0.0 -0.0 -0.0 -0.0
110 0.01714 -1393.69504862039 -1397.57402740163 -1404.11565287438 -1416.33566832684 -1443.77376283719 -0.0 -0.0 -0.0 -0.0 -0.0
111 0.01768 -1309.28935273415 -1312.76161261296 -1318.55788467534 -1329.31886717253 -1353.56105022383 -0.0 -0.0 -0.0 -0.0 -0.0
112 0.01824 -1230.08838270654 -1233.19921178873 -1238.33743727744 -1247.81564739781 -1269.24819774532 -0.0 -0.0 -0.0 -0.0 -0.0
113 0.01882 -1155.76231591527 -1158.55174652537 -1163.10877050509 -1171.45880966159 -1190.41963361664 -0.0 -0.0 -0.0 -0.0 -0.0
114 0.01941 -1086.00305829928 -1088.50649605244 -1092.54998341502 -1099.90751645911 -1116.69244526454 -0.0 -0.0 -0.0 -0.0 -0.0
115 0.02002 -1020.52273500702 -1022.77151046704 -1026.3610664977 -1032.84519200612 -1047.71342144816 -0.0 -0.0 -0.0 -0.0 -0.0
116 0.02065 -959.052292625019 -961.074145586189 -964.26229677332 -969.977612255805 -983.156407711105 -0.0 -0.0 -0.0 -0.0 -0.0
117 0.0213 -901.340205312974 -903.159709712971 -905.992762547171 -911.031165340491 -922.719936638054 -0.0 -0.0 -0.0 -0.0 -0.0
118 0.02197 -847.151276329324 -848.790213672202 -851.309006275586 -855.751264888028 -866.125099698436 -0.0 -0.0 -0.0 -0.0 -0.0
119 0.02266 -796.265525248407 -797.743213070032 -799.983774881969 -803.900901194015 -813.113632268825 -0.0 -0.0 -0.0 -0.0 -0.0
120 0.02337 -748.477158453018 -749.810738428366 -751.804867815253 -755.259316055271 -763.446186865461 -0.0 -0.0 -0.0 -0.0 -0.0
121 0.0241 -703.593611120957 -704.798303164409 -706.574074786924 -709.620789765503 -716.900773399709 -0.0 -0.0 -0.0 -0.0 -0.0
122 0.02486 -661.434659309987 -662.523985168608 -664.106194839121 -666.793529109156 -673.271347507568 -0.0 -0.0 -0.0 -0.0 -0.0
123 0.02564 -621.831594984537 -622.817574922008 -624.228130419358 -626.598647023337 -632.366530903326 -0.0 -0.0 -0.0 -0.0 -0.0
124 0.02644 -584.626459394489 -585.519785214295 -586.778049656842 -588.869225163457 -594.008449350267 -0.0 -0.0 -0.0 -0.0 -0.0
125 0.02726 -549.671329710853 -550.481517935053 -551.604611432314 -553.449452000704 -558.031675842205 -0.0 -0.0 -0.0 -0.0 -0.0
126 0.02811 -516.827656967925 -517.56318304241 -518.566247850901 -520.193829372783 -524.282267984152 -0.0 -0.0 -0.0 -0.0 -0.0
127 0.02899 -485.965648507365 -486.634065788966 -487.53049972064 -488.966441476714 -492.616889920913 -0.0 -0.0 -0.0 -0.0 -0.0
128 0.02989 -456.963694239158 -457.571738829714 -458.373400413995 -459.64028072106 -462.902010291739 -0.0 -0.0 -0.0 -0.0 -0.0
129 0.03082 -429.707831975331 -430.261515309779 -430.978904482508 -432.096625557583 -435.013168581307 -0.0 -0.0 -0.0 -0.0 -0.0
130 0.03178 -404.091249786715 -404.595940067383 -405.238357166071 -406.224465819386 -408.834303328702 -0.0 -0.0 -0.0 -0.0 -0.0
131 0.03277 -380.01382197143 -380.474316642267 -381.050002461357 -381.919971190883 -384.257136005059 -0.0 -0.0 -0.0 -0.0 -0.0
132 0.03379 -357.381676456375 -357.802266058979 -358.318525123621 -359.085999885094 -361.180605612783 -0.0 -0.0 -0.0 -0.0 -0.0
